1,1.5308085e-15,-3.7493995e-31,-65.0
2,2.1431319e-15,-5.2491592e-31,-74.999995
3,33.732609,-8.2621062e-15,20.0
4,23.787148,-5.8261709e-15,20.0
5,1.6073489e-15,-3.9368694e-31,-66.249999
6,1.6838893e-15,-4.1243394e-31,-67.499999
7,1.7604298e-15,-4.3118094e-31,-68.749998
8,1.8369702e-15,-4.4992793e-31,-69.999998
9,1.9135106e-15,-4.6867493e-31,-71.249997
10,1.990051e-15,-4.8742193e-31,-72.499996
11,2.0665915e-15,-5.0616893e-31,-73.749996
12,25.03033,-6.1306628e-15,20.0
13,26.273513,-6.4351547e-15,20.0
14,27.516696,-6.7396466e-15,20.0
15,28.759878,-7.0441386e-15,20.0
16,30.003061,-7.3486305e-15,20.0
17,31.246243,-7.6531224e-15,20.0
18,32.489426,-7.9576143e-15,20.0
19,2.1800894,-5.339679e-16,-74.85436
20,4.32272,-1.058761e-15,-74.425779
21,6.3965578,-1.5667048e-15,-73.736829
22,8.3798361,-2.0524679e-15,-72.81863
23,10.260492,-2.5130957e-15,-71.704821
24,12.034211,-2.9475317e-15,-70.427262
25,13.701916,-3.3560015e-15,-69.013886
26,15.267596,-3.7394825e-15,-67.488107
27,16.736772,-4.0993269e-15,-65.869084
28,18.115526,-4.4370243e-15,-64.172314
29,19.409935,-4.7540631e-15,-62.410297
30,20.625777,-5.0518585e-15,-60.593135
31,21.768393,-5.3317185e-15,-58.729025
32,22.842637,-5.5948324e-15,-56.824671
33,23.852884,-5.8422716e-15,-54.885588
34,24.803054,-6.0749961e-15,-52.916356
35,25.696649,-6.2938639e-15,-50.920803
36,26.536797,-6.4996407e-15,-48.902157
37,27.326289,-6.6930104e-15,-46.863158
38,28.067618,-6.8745837e-15,-44.806153
39,28.763013,-7.0449062e-15,-42.733163
40,29.414467,-7.2044666e-15,-40.645944
41,30.023766,-7.3537019e-15,-38.546028
42,30.59251,-7.493004e-15,-36.434764
43,31.122133,-7.6227241e-15,-34.313346
44,31.61392,-7.7431771e-15,-32.182836
45,32.069022,-7.854645e-15,-30.044188
46,32.48847,-7.9573802e-15,-27.898261
47,32.873187,-8.0516086e-15,-25.745835
48,33.223993,-8.1375312e-15,-23.587621
49,33.541617,-8.2153268e-15,-21.424275
50,33.826706,-8.2851535e-15,-19.256399
51,34.079826,-8.34715e-15,-17.084559
52,34.301471,-8.4014373e-15,-14.90928
53,34.492066,-8.4481196e-15,-12.73106
54,34.651971,-8.487285e-15,-10.550373
55,34.781484,-8.5190067e-15,-8.3676687
56,34.880846,-8.5433433e-15,-6.1833842
57,34.950238,-8.5603394e-15,-3.9979422
58,34.989786,-8.570026e-15,-1.8117563
59,34.999563,-8.5724206e-15,0.37476541
60,34.979586,-8.5675275e-15,2.5612177
61,34.929818,-8.555338e-15,4.7471948
62,34.85017,-8.5358298e-15,6.932287
63,34.740496,-8.5089674e-15,9.1160779
64,34.600594,-8.4747013e-15,11.29814
65,34.430205,-8.4329682e-15,13.478034
66,34.229011,-8.3836897e-15,15.6553
67,33.996628,-8.3267723e-15,17.829458
68,1.8735972,-4.5889896e-16,-64.817204
69,3.6816448,-9.0174289e-16,-64.291302
70,5.3801538,-1.3177576e-15,-63.476962
71,6.9512497,-1.7025651e-15,-62.436829
72,8.3950781,-2.0562011e-15,-61.225593
73,9.7204738,-2.3808294e-15,-59.885422
74,10.939061,-2.6792972e-15,-58.447222
75,12.062428,-2.9544429e-15,-56.933341
76,13.101044,-3.2088302e-15,-55.360018
77,14.063977,-3.4446808e-15,-53.739211
78,14.958952,-3.6638866e-15,-52.079873
79,15.79251,-3.8680494e-15,-50.38882
80,16.57019,-4.058526e-15,-48.671333
81,17.296697,-4.2364689e-15,-46.931568
82,17.976046,-4.4028615e-15,-45.172841
83,18.61168,-4.5585468e-15,-43.397838
84,19.206566,-4.7042519e-15,-41.60876
85,19.763275,-4.8406062e-15,-39.807432
86,20.284044,-4.9681579e-15,-37.995383
87,20.770828,-5.0873856e-15,-36.173907
88,21.225341,-5.1987093e-15,-34.344109
89,21.649094,-5.3024987e-15,-32.50694
90,22.043416,-5.3990797e-15,-30.663229
91,22.409485,-5.4887408e-15,-28.8137
92,22.748343,-5.5717371e-15,-26.958991
93,23.060913,-5.6482947e-15,-25.09967
94,23.348013,-5.7186139e-15,-23.236245
95,23.610368,-5.7828723e-15,-21.369175
96,23.848616,-5.8412263e-15,-19.498875
97,24.063322,-5.893814e-15,-17.625725
98,24.254979,-5.9407565e-15,-15.750077
99,24.424017,-5.9821589e-15,-13.872255
100,24.570808,-6.0181124e-15,-11.992563
101,24.695668,-6.0486942e-15,-10.111286
102,24.798861,-6.0739692e-15,-8.2286958
103,24.880603,-6.0939903e-15,-6.3450524
104,24.941064,-6.1087988e-15,-4.4606057
105,24.980366,-6.118425e-15,-2.5755989
106,24.99859,-6.1228887e-15,-0.69027049
107,24.995774,-6.1221989e-15,1.1951439
108,24.97191,-6.116354e-15,3.0804094
109,24.926952,-6.1053424e-15,4.9652897
110,24.860807,-6.0891415e-15,6.8495454
111,24.773339,-6.0677181e-15,8.7329316
112,24.664367,-6.0410277e-15,10.615196
113,24.533663,-6.0090143e-15,12.496075
114,24.380948,-5.9716099e-15,14.375296
115,24.205891,-5.9287334e-15,16.252566
116,24.008107,-5.8802902e-15,18.127578
117,1.9119087,-4.6828258e-16,-66.071848
118,3.7617792,-9.2137016e-16,-65.558112
119,5.5072043,-1.348876e-15,-64.759445
120,7.129823,-1.746303e-15,-63.734554
121,8.6282548,-2.1133129e-15,-62.535496
122,10.009691,-2.4516672e-15,-61.203152
123,11.284418,-2.7638853e-15,-59.768055
124,12.463074,-3.0525728e-15,-58.252686
125,13.55551,-3.3201423e-15,-56.673651
126,14.570421,-3.5687238e-15,-55.043349
127,15.515325,-3.8001586e-15,-53.371176
128,16.396669,-4.0160255e-15,-51.664359
129,17.219965,-4.2176751e-15,-49.928545
130,17.98994,-4.4062644e-15,-48.168206
131,18.710651,-4.5827877e-15,-46.386934
132,19.385602,-4.748103e-15,-44.587653
133,20.017826,-4.9029534e-15,-42.772766
134,20.609965,-5.0479856e-15,-40.944273
135,21.164324,-5.1837644e-15,-39.103855
136,21.682927,-5.3107853e-15,-37.252938
137,22.16755,-5.4294839e-15,-35.39274
138,22.619765,-5.5402446e-15,-33.524316
139,23.04096,-5.6434075e-15,-31.648579
140,23.432363,-5.7392737e-15,-29.766333
141,23.795067,-5.8281104e-15,-27.878285
142,24.130039,-5.910155e-15,-25.985066
143,24.438139,-5.9856178e-15,-24.087238
144,24.720131,-6.0546858e-15,-22.18531
145,24.976687,-6.1175241e-15,-20.279745
146,25.208406,-6.1742787e-15,-18.370962
147,25.415809,-6.2250778e-15,-16.459352
148,25.599353,-6.2700333e-15,-14.545273
149,25.759436,-6.3092421e-15,-12.629062
150,25.896393,-6.3427871e-15,-10.711035
151,26.010512,-6.370738e-15,-8.7914913
152,26.102024,-6.3931521e-15,-6.8707174
153,26.171116,-6.4100748e-15,-4.9489886
154,26.217926,-6.4215398e-15,-3.0265721
155,26.242546,-6.4275701e-15,-1.1037295
156,26.245025,-6.4281772e-15,0.81928139
157,26.225367,-6.4233624e-15,2.7422039
158,26.183531,-6.4131156e-15,4.6647807
159,26.119433,-6.3974161e-15,6.5867516
160,26.032943,-6.376232e-15,8.507851
161,25.923883,-6.3495201e-15,10.427806
162,25.792029,-6.3172252e-15,12.346334
163,25.637105,-6.2792797e-15,14.263138
164,25.458781,-6.2356029e-15,16.177908
165,25.256672,-6.1861005e-15,18.090313
166,1.9502202,-4.7766619e-16,-67.326493
167,3.8419136,-9.4099743e-16,-66.824921
168,5.6342548,-1.3799944e-15,-66.041928
169,7.3083963,-1.7900408e-15,-65.03228
170,8.8614315,-2.1704247e-15,-63.8454
171,10.298908,-2.522505e-15,-62.520882
172,11.629775,-2.8484733e-15,-61.088888
173,12.86372,-3.1507028e-15,-59.572032
174,14.009976,-3.4314544e-15,-57.987284
175,15.076864,-3.6927667e-15,-56.347487
176,16.071698,-3.9364307e-15,-54.662479
177,17.000827,-4.1640017e-15,-52.939899
178,17.869741,-4.3768241e-15,-51.185756
179,18.683182,-4.5760598e-15,-49.404844
180,19.445256,-4.762714e-15,-47.601028
181,20.159523,-4.9376591e-15,-45.777468
182,20.829087,-5.1016549e-15,-43.936771
183,21.456655,-5.2553649e-15,-42.081113
184,22.044605,-5.399371e-15,-40.212327
185,22.595025,-5.5341851e-15,-38.331968
186,23.109759,-5.6602585e-15,-36.441372
187,23.590437,-5.7779906e-15,-34.541691
188,24.038504,-5.8877353e-15,-32.633929
189,24.455241,-5.9898066e-15,-30.718966
190,24.84179,-6.0844838e-15,-28.79758
191,25.199165,-6.1720153e-15,-26.870461
192,25.528265,-6.2526217e-15,-24.938231
193,25.829893,-6.3264993e-15,-23.001446
194,26.104759,-6.3938219e-15,-21.060615
195,26.35349,-6.4547433e-15,-19.116199
196,26.576639,-6.5093991e-15,-17.168627
197,26.77469,-6.5579076e-15,-15.218291
198,26.948063,-6.6003718e-15,-13.265562
199,27.097119,-6.63688e-15,-11.310784
200,27.222162,-6.6675068e-15,-9.3542869
201,27.323445,-6.6923139e-15,-7.3963824
202,27.401169,-6.7113507e-15,-5.4373714
203,27.455486,-6.7246546e-15,-3.4775452
204,27.486502,-6.7322514e-15,-1.5171884
205,27.494277,-6.7341556e-15,0.44341886
206,27.478824,-6.7303707e-15,2.4039984
207,27.440111,-6.7208887e-15,4.3642717
208,27.37806,-6.7056906e-15,6.3239577
209,27.292547,-6.684746e-15,8.2827704
210,27.183399,-6.6580126e-15,10.240416
211,27.050396,-6.6254361e-15,12.196592
212,26.893262,-6.5869494e-15,14.15098
213,26.711671,-6.5424725e-15,16.10325
214,26.505237,-6.4919107e-15,18.053048
215,1.9885318,-4.8704981e-16,-68.581137
216,3.922048,-9.606247e-16,-68.091731
217,5.7613053,-1.4111128e-15,-67.324412
218,7.4869696,-1.8337787e-15,-66.330005
219,9.0946082,-2.2275366e-15,-65.155303
220,10.588125,-2.5933428e-15,-63.838612
221,11.975132,-2.9330613e-15,-62.409721
222,13.264366,-3.2488327e-15,-60.891378
223,14.464442,-3.5427665e-15,-59.300917
224,15.583308,-3.8168096e-15,-57.651625
225,16.628071,-4.0727027e-15,-55.953782
226,17.604985,-4.3119778e-15,-54.215438
227,18.519516,-4.5359732e-15,-52.442968
228,19.376424,-4.7458552e-15,-50.641481
229,20.17986,-4.9426403e-15,-48.815121
230,20.933445,-5.1272153e-15,-46.967282
231,21.640347,-5.3003564e-15,-45.100776
232,22.303346,-5.4627442e-15,-43.217954
233,22.924886,-5.6149776e-15,-41.320799
234,23.507124,-5.7575848e-15,-39.410999
235,24.051968,-5.8910331e-15,-37.490004
236,24.561109,-6.0157366e-15,-35.559067
237,25.036047,-6.132063e-15,-33.619279
238,25.47812,-6.2403395e-15,-31.671599
239,25.888514,-6.3408572e-15,-29.716874
240,26.26829,-6.4338756e-15,-27.755857
241,26.618391,-6.5196256e-15,-25.789224
242,26.939656,-6.5983128e-15,-23.817582
243,27.23283,-6.6701197e-15,-21.841485
244,27.498573,-6.735208e-15,-19.861436
245,27.737468,-6.7937204e-15,-17.877901
246,27.950026,-6.8457819e-15,-15.891309
247,28.13669,-6.8915015e-15,-13.902061
248,28.297844,-6.9309728e-15,-11.910533
249,28.433813,-6.9642756e-15,-9.9170825
250,28.544866,-6.9914758e-15,-7.9220474
251,28.631221,-7.0126267e-15,-5.9257543
252,28.693046,-7.0277694e-15,-3.9285184
253,28.730458,-7.0369327e-15,-1.9306474
254,28.743528,-7.040134e-15,0.067556326
255,28.73228,-7.037379e-15,2.0657929
256,28.69669,-7.0286618e-15,4.0637627
257,28.636686,-7.0139652e-15,6.0611639
258,28.552151,-6.99326e-15,8.0576899
259,28.442915,-6.9665051e-15,10.053027
260,28.308762,-6.9336469e-15,12.04685
261,28.149419,-6.8946192e-15,14.038823
262,27.964561,-6.849342e-15,16.028591
263,27.753802,-6.797721e-15,18.015783
264,2.0268433,-4.9643343e-16,-69.835782
265,4.0021824,-9.8025196e-16,-69.358541
266,5.8883558,-1.4422312e-15,-68.606895
267,7.6655429,-1.8775165e-15,-67.62773
268,9.3277849,-2.2846484e-15,-66.465207
269,10.877343,-2.6641806e-15,-65.156342
270,12.320489,-3.0176494e-15,-63.730554
271,13.665012,-3.3469627e-15,-62.210724
272,14.918908,-3.6540786e-15,-60.614551
273,16.089752,-3.9408525e-15,-58.955762
274,17.184444,-4.2089748e-15,-57.245085
275,18.209144,-4.4599539e-15,-55.490977
276,19.169291,-4.6951223e-15,-53.700179
277,20.069667,-4.9156507e-15,-51.878119
278,20.914465,-5.1225665e-15,-50.029215
279,21.707367,-5.3167715e-15,-48.157097
280,22.451608,-5.4990579e-15,-46.264782
281,23.150036,-5.6701235e-15,-44.354794
282,23.805166,-5.8305841e-15,-42.42927
283,24.419223,-5.9809846e-15,-40.49003
284,24.994177,-6.1218078e-15,-38.538636
285,25.53178,-6.2534826e-15,-36.576442
286,26.033591,-6.3763908e-15,-34.604629
287,26.500998,-6.4908724e-15,-32.624232
288,26.935238,-6.5972306e-15,-30.636168
289,27.337416,-6.6957359e-15,-28.641253
290,27.708518,-6.7866295e-15,-26.640217
291,28.049419,-6.8701263e-15,-24.633718
292,28.360901,-6.9464174e-15,-22.622355
293,28.643657,-7.0156726e-15,-20.606673
294,28.898298,-7.0780417e-15,-18.587176
295,29.125362,-7.1336562e-15,-16.564327
296,29.325317,-7.1826312e-15,-14.538561
297,29.498569,-7.2250657e-15,-12.510283
298,29.645463,-7.2610444e-15,-10.479878
299,29.766287,-7.2906376e-15,-8.4477125
300,29.861274,-7.3139027e-15,-6.4141372
301,29.930606,-7.3308842e-15,-4.3794916
302,29.974414,-7.3416141e-15,-2.3441063
303,29.99278,-7.3461124e-15,-0.3083062
304,29.985737,-7.3443873e-15,1.7275874
305,29.953269,-7.336435e-15,3.7632537
306,29.895313,-7.3222398e-15,5.7983701
307,29.811754,-7.3017739e-15,7.8326093
308,29.702431,-7.2749975e-15,9.8656368
309,29.567128,-7.2418578e-15,11.897108
310,29.405577,-7.202289e-15,13.926665
311,29.217451,-7.1562116e-15,15.953933
312,29.002367,-7.1035313e-15,17.978518
313,2.0651548,-5.0581705e-16,-71.090426
314,4.0823168,-9.9987923e-16,-70.62535
315,6.0154063,-1.4733496e-15,-69.889379
316,7.8441162,-1.9212544e-15,-68.925455
317,9.5609616,-2.3417602e-15,-67.77511
318,11.16656,-2.7350183e-15,-66.474072
319,12.665845,-3.1022374e-15,-65.051387
320,14.065658,-3.4450926e-15,-63.53007
321,15.373374,-3.7653907e-15,-61.928184
322,16.596195,-4.0648955e-15,-60.2599
323,17.740817,-4.3452469e-15,-58.536388
324,18.813302,-4.6079301e-15,-56.766517
325,19.819067,-4.8542713e-15,-54.957391
326,20.762909,-5.0854461e-15,-53.114757
327,21.64907,-5.3024928e-15,-51.243308
328,22.481289,-5.5063276e-15,-49.346912
329,23.262868,-5.6977594e-15,-47.428787
330,23.996726,-5.8775028e-15,-45.491635
331,24.685447,-6.0461907e-15,-43.537742
332,25.331322,-6.2043844e-15,-41.56906
333,25.936386,-6.3525824e-15,-39.587268
334,26.502452,-6.4912286e-15,-37.593817
335,27.031135,-6.6207186e-15,-35.589978
336,27.523876,-6.7414053e-15,-33.576865
337,27.981962,-6.853604e-15,-31.555463
338,28.406542,-6.9575962e-15,-29.526649
339,28.798644,-7.0536333e-15,-27.491209
340,29.159182,-7.1419398e-15,-25.449854
341,29.488973,-7.2227152e-15,-23.403225
342,29.788741,-7.2961373e-15,-21.35191
343,30.059128,-7.3623629e-15,-19.296451
344,30.300698,-7.4215305e-15,-17.237345
345,30.513944,-7.4737609e-15,-15.17506
346,30.699295,-7.5191586e-15,-13.110032
347,30.857114,-7.5578132e-15,-11.042674
348,30.987708,-7.5897995e-15,-8.9733775
349,31.091327,-7.6151787e-15,-6.90252
350,31.168166,-7.633999e-15,-4.8304647
351,31.21837,-7.6462954e-15,-2.7575653
352,31.242032,-7.6520908e-15,-0.68416874
353,31.239193,-7.6513956e-15,1.3893819
354,31.209848,-7.6442081e-15,3.4627447
355,31.153939,-7.6305143e-15,5.5355763
356,31.071358,-7.6102879e-15,7.6075287
357,30.961947,-7.58349e-15,9.6782471
358,30.825495,-7.5500687e-15,11.747366
359,30.661734,-7.5099588e-15,13.814507
360,30.470341,-7.4630811e-15,15.879275
361,30.250932,-7.4093415e-15,17.941253
362,2.1034663,-5.1520066e-16,-72.345071
363,4.1624512,-1.0195065e-15,-71.89216
364,6.1424568,-1.504468e-15,-71.171862
365,8.0226895,-1.9649922e-15,-70.22318
366,9.7941383,-2.398872e-15,-69.085014
367,11.455777,-2.8058561e-15,-67.791802
368,13.011202,-3.1868254e-15,-66.37222
369,14.466304,-3.5432226e-15,-64.849416
370,15.82784,-3.8767028e-15,-63.241817
371,17.102639,-4.1889384e-15,-61.564038
372,18.29719,-4.4815189e-15,-59.827691
373,19.417461,-4.7559062e-15,-58.042056
374,20.468842,-5.0134204e-15,-56.214602
375,21.456152,-5.2552415e-15,-54.351395
376,22.383675,-5.4824191e-15,-52.457401
377,23.25521,-5.6958838e-15,-50.536727
378,24.074128,-5.8964609e-15,-48.592792
379,24.843417,-6.0848821e-15,-46.628475
380,25.565728,-6.2617973e-15,-44.646214
381,26.24342,-6.4277841e-15,-42.648091
382,26.878595,-6.583357e-15,-40.635899
383,27.473124,-6.7289746e-15,-38.611193
384,28.028679,-6.8650463e-15,-36.575328
385,28.546754,-6.9919382e-15,-34.529498
386,29.028686,-7.1099774e-15,-32.474757
387,29.475668,-7.2194565e-15,-30.412044
388,29.88877,-7.3206372e-15,-28.342202
389,30.268945,-7.4137532e-15,-26.26599
390,30.617044,-7.499013e-15,-24.184095
391,30.933825,-7.5766019e-15,-22.097147
392,31.219958,-7.6466842e-15,-20.005725
393,31.476034,-7.7094048e-15,-17.910363
394,31.702572,-7.7648906e-15,-15.81156
395,31.90002,-7.8132515e-15,-13.709781
396,32.068765,-7.854582e-15,-11.605469
397,32.209129,-7.8889613e-15,-9.4990425
398,32.321379,-7.9164547e-15,-7.3909029
399,32.405726,-7.9371138e-15,-5.2814379
400,32.462326,-7.9509768e-15,-3.1710243
401,32.491283,-7.9580692e-15,-1.0600313
402,32.49265,-7.9584039e-15,1.0511764
403,32.466427,-7.9519813e-15,3.1622357
404,32.412565,-7.9387889e-15,5.2727824
405,32.330962,-7.9188019e-15,7.3824482
406,32.221464,-7.8919824e-15,9.4908573
407,32.083861,-7.8582796e-15,11.597624
408,31.917891,-7.8176286e-15,13.702349
409,31.723231,-7.7699506e-15,15.804616
410,31.499498,-7.7151518e-15,17.903988
411,2.1417779,-5.2458428e-16,-73.599716
412,4.2425856,-1.0391338e-15,-73.15897
413,6.2695073,-1.5355864e-15,-72.454345
414,8.2012628,-2.00873e-15,-71.520905
415,10.027315,-2.4559838e-15,-70.394917
416,11.744994,-2.8766939e-15,-69.109532
417,13.356559,-3.2714135e-15,-67.693053
418,14.86695,-3.6413525e-15,-66.168761
419,16.282306,-3.9880149e-15,-64.55545
420,17.609083,-4.3129813e-15,-62.868176
421,18.853562,-4.617791e-15,-61.118994
422,20.021619,-4.9038823e-15,-59.317595
423,21.118617,-5.1725694e-15,-57.471814
424,22.149394,-5.425037e-15,-55.588033
425,23.118279,-5.6623454e-15,-53.671495
426,24.029132,-5.88544e-15,-51.726541
427,24.885389,-6.0951624e-15,-49.756798
428,25.690107,-6.2922614e-15,-47.765316
429,26.446008,-6.4774039e-15,-45.754686
430,27.155519,-6.6511839e-15,-43.727122
431,27.820804,-6.8141316e-15,-41.684531
432,28.443795,-6.9667206e-15,-39.628568
433,29.026223,-7.1093741e-15,-37.560678
434,29.569632,-7.2424711e-15,-35.482131
435,30.075409,-7.3663508e-15,-33.394051
436,30.544794,-7.4813168e-15,-31.29744
437,30.978896,-7.5876411e-15,-29.193195
438,31.378708,-7.6855667e-15,-27.082125
439,31.745115,-7.7753108e-15,-24.964965
440,32.078909,-7.8570666e-15,-22.842384
441,32.380787,-7.9310055e-15,-20.715
442,32.65137,-7.9972792e-15,-18.583381
443,32.891199,-8.0560203e-15,-16.448059
444,33.100746,-8.1073444e-15,-14.309531
445,33.280415,-8.1513508e-15,-12.168265
446,33.43055,-8.1881232e-15,-10.024708
447,33.551432,-8.2177307e-15,-7.8792858
448,33.643286,-8.2402285e-15,-5.7324111
449,33.706282,-8.2556581e-15,-3.5844832
450,33.740535,-8.2640476e-15,-1.4358938
451,33.746106,-8.2654123e-15,0.71297091
452,33.723006,-8.2597544e-15,2.8617267
453,33.671192,-8.2470634e-15,5.0099886
454,33.590566,-8.2273158e-15,7.1573676
455,33.48098,-8.2004749e-15,9.3034676
456,33.342228,-8.1664905e-15,11.447882
457,33.174048,-8.1252984e-15,13.590192
458,32.976121,-8.0768202e-15,15.729958
459,32.748063,-8.020962e-15,17.866723
460,23.599579,2.9813202,20.0
461,23.039831,5.9156231,20.0
462,22.116731,8.7566332,20.0
463,20.844837,11.459546,20.0
464,19.244207,13.981735,20.0
465,17.340085,16.283423,20.0
466,15.162499,18.328312,20.0
467,12.745791,20.084153,20.0
468,10.128075,21.523255,20.0
469,7.3506329,22.622922,20.0
470,4.457267,23.365812,20.0
471,1.4936074,23.740209,20.0
472,-1.4936074,23.740209,20.0
473,-4.457267,23.365812,20.0
474,-7.3506329,22.622922,20.0
475,-10.128075,21.523255,20.0
476,-12.745791,20.084153,20.0
477,-15.162499,18.328312,20.0
478,-17.340085,16.283423,20.0
479,-19.244207,13.981735,20.0
480,-20.844837,11.459546,20.0
481,-22.116731,8.7566332,20.0
482,-23.039831,5.9156231,20.0
483,-23.599579,2.9813202,20.0
484,-23.787148,2.6645353e-15,20.0
485,-23.599579,-2.9813202,20.0
486,-23.039831,-5.9156231,20.0
487,-22.116731,-8.7566332,20.0
488,-20.844837,-11.459546,20.0
489,-19.244207,-13.981735,20.0
490,-17.340085,-16.283423,20.0
491,-15.162499,-18.328312,20.0
492,-12.745791,-20.084153,20.0
493,-10.128075,-21.523255,20.0
494,-7.3506329,-22.622922,20.0
495,-4.457267,-23.365812,20.0
496,-1.4936074,-23.740209,20.0
497,1.4936074,-23.740209,20.0
498,4.457267,-23.365812,20.0
499,7.3506329,-22.622922,20.0
500,10.128075,-21.523255,20.0
501,12.745791,-20.084153,20.0
502,15.162499,-18.328312,20.0
503,17.340085,-16.283423,20.0
504,19.244207,-13.981735,20.0
505,20.844837,-11.459546,20.0
506,22.116731,-8.7566332,20.0
507,23.039831,-5.9156231,20.0
508,23.599579,-2.9813202,20.0
509,24.832959,3.1371322,20.0
510,24.243957,6.22479,20.0
511,23.272613,9.2142792,20.0
512,21.934246,12.058454,20.0
513,20.249963,14.712459,20.0
514,18.246326,17.13444,20.0
515,15.954933,19.286201,20.0
516,13.411922,21.133807,20.0
517,10.657396,22.64812,20.0
518,7.7347975,23.805259,20.0
519,4.6902162,24.586974,20.0
520,1.5716675,24.980939,20.0
521,-1.5716675,24.980939,20.0
522,-4.6902162,24.586974,20.0
523,-7.7347975,23.805259,20.0
524,-10.657396,22.64812,20.0
525,-13.411922,21.133807,20.0
526,-15.954933,19.286201,20.0
527,-18.246326,17.13444,20.0
528,-20.249963,14.712459,20.0
529,-21.934246,12.058454,20.0
530,-23.272613,9.2142792,20.0
531,-24.243957,6.22479,20.0
532,-24.832959,3.1371322,20.0
533,-25.03033,0.0,20.0
534,-24.832959,-3.1371322,20.0
535,-24.243957,-6.22479,20.0
536,-23.272613,-9.2142792,20.0
537,-21.934246,-12.058454,20.0
538,-20.249963,-14.712459,20.0
539,-18.246326,-17.13444,20.0
540,-15.954933,-19.286201,20.0
541,-13.411922,-21.133807,20.0
542,-10.657396,-22.64812,20.0
543,-7.7347975,-23.805259,20.0
544,-4.6902162,-24.586974,20.0
545,-1.5716675,-24.980939,20.0
546,1.5716675,-24.980939,20.0
547,4.6902162,-24.586974,20.0
548,7.7347975,-23.805259,20.0
549,10.657396,-22.64812,20.0
550,13.411922,-21.133807,20.0
551,15.954933,-19.286201,20.0
552,18.246326,-17.13444,20.0
553,20.249963,-14.712459,20.0
554,21.934246,-12.058454,20.0
555,23.272613,-9.2142792,20.0
556,24.243957,-6.22479,20.0
557,24.832959,-3.1371322,20.0
558,26.066339,3.2929443,20.0
559,25.448082,6.533957,20.0
560,24.428495,9.6719252,20.0
561,23.023655,12.657361,20.0
562,21.255719,15.443183,20.0
563,19.152567,17.985457,20.0
564,16.747367,20.24409,20.0
565,14.078052,22.183461,20.0
566,11.186718,23.772985,20.0
567,8.118962,24.987596,20.0
568,4.9231654,25.808137,20.0
569,1.6497275,26.221668,20.0
570,-1.6497275,26.221668,20.0
571,-4.9231654,25.808137,20.0
572,-8.118962,24.987596,20.0
573,-11.186718,23.772985,20.0
574,-14.078052,22.183461,20.0
575,-16.747367,20.24409,20.0
576,-19.152567,17.985457,20.0
577,-21.255719,15.443183,20.0
578,-23.023655,12.657361,20.0
579,-24.428495,9.6719252,20.0
580,-25.448082,6.533957,20.0
581,-26.066339,3.2929443,20.0
582,-26.273513,-4.4408921e-15,20.0
583,-26.066339,-3.2929443,20.0
584,-25.448082,-6.533957,20.0
585,-24.428495,-9.6719252,20.0
586,-23.023655,-12.657361,20.0
587,-21.255719,-15.443183,20.0
588,-19.152567,-17.985457,20.0
589,-16.747367,-20.24409,20.0
590,-14.078052,-22.183461,20.0
591,-11.186718,-23.772985,20.0
592,-8.118962,-24.987596,20.0
593,-4.9231654,-25.808137,20.0
594,-1.6497275,-26.221668,20.0
595,1.6497275,-26.221668,20.0
596,4.9231654,-25.808137,20.0
597,8.118962,-24.987596,20.0
598,11.186718,-23.772985,20.0
599,14.078052,-22.183461,20.0
600,16.747367,-20.24409,20.0
601,19.152567,-17.985457,20.0
602,21.255719,-15.443183,20.0
603,23.023655,-12.657361,20.0
604,24.428495,-9.6719252,20.0
605,25.448082,-6.533957,20.0
606,26.066339,-3.2929443,20.0
607,27.299718,3.4487564,20.0
608,26.652208,6.8431239,20.0
609,25.584377,10.129571,20.0
610,24.113064,13.256269,20.0
611,22.261474,16.173908,20.0
612,20.058808,18.836474,20.0
613,17.539802,21.201978,20.0
614,14.744183,23.233115,20.0
615,11.716039,24.897851,20.0
616,8.5031266,26.169933,20.0
617,5.1561146,27.029299,20.0
618,1.7277876,27.462398,20.0
619,-1.7277876,27.462398,20.0
620,-5.1561146,27.029299,20.0
621,-8.5031266,26.169933,20.0
622,-11.716039,24.897851,20.0
623,-14.744183,23.233115,20.0
624,-17.539802,21.201978,20.0
625,-20.058808,18.836474,20.0
626,-22.261474,16.173908,20.0
627,-24.113064,13.256269,20.0
628,-25.584377,10.129571,20.0
629,-26.652208,6.8431239,20.0
630,-27.299718,3.4487564,20.0
631,-27.516696,1.2434498e-14,20.0
632,-27.299718,-3.4487564,20.0
633,-26.652208,-6.8431239,20.0
634,-25.584377,-10.129571,20.0
635,-24.113064,-13.256269,20.0
636,-22.261474,-16.173908,20.0
637,-20.058808,-18.836474,20.0
638,-17.539802,-21.201978,20.0
639,-14.744183,-23.233115,20.0
640,-11.716039,-24.897851,20.0
641,-8.5031266,-26.169933,20.0
642,-5.1561146,-27.029299,20.0
643,-1.7277876,-27.462398,20.0
644,1.7277876,-27.462398,20.0
645,5.1561146,-27.029299,20.0
646,8.5031266,-26.169933,20.0
647,11.716039,-24.897851,20.0
648,14.744183,-23.233115,20.0
649,17.539802,-21.201978,20.0
650,20.058808,-18.836474,20.0
651,22.261474,-16.173908,20.0
652,24.113064,-13.256269,20.0
653,25.584377,-10.129571,20.0
654,26.652208,-6.8431239,20.0
655,27.299718,-3.4487564,20.0
656,28.533098,3.6045685,20.0
657,27.856334,7.1522909,20.0
658,26.740258,10.587217,20.0
659,25.202473,13.855177,20.0
660,23.26723,16.904632,20.0
661,20.965049,19.687491,20.0
662,18.332236,22.159867,20.0
663,15.410313,24.282768,20.0
664,12.245361,26.022716,20.0
665,8.8872911,27.35227,20.0
666,5.3890638,28.250462,20.0
667,1.8058477,28.703127,20.0
668,-1.8058477,28.703127,20.0
669,-5.3890638,28.250462,20.0
670,-8.8872911,27.35227,20.0
671,-12.245361,26.022716,20.0
672,-15.410313,24.282768,20.0
673,-18.332236,22.159867,20.0
674,-20.965049,19.687491,20.0
675,-23.26723,16.904632,20.0
676,-25.202473,13.855177,20.0
677,-26.740258,10.587217,20.0
678,-27.856334,7.1522909,20.0
679,-28.533098,3.6045685,20.0
680,-28.759878,-2.220446e-15,20.0
681,-28.533098,-3.6045685,20.0
682,-27.856334,-7.1522909,20.0
683,-26.740258,-10.587217,20.0
684,-25.202473,-13.855177,20.0
685,-23.26723,-16.904632,20.0
686,-20.965049,-19.687491,20.0
687,-18.332236,-22.159867,20.0
688,-15.410313,-24.282768,20.0
689,-12.245361,-26.022716,20.0
690,-8.8872911,-27.35227,20.0
691,-5.3890638,-28.250462,20.0
692,-1.8058477,-28.703127,20.0
693,1.8058477,-28.703127,20.0
694,5.3890638,-28.250462,20.0
695,8.8872911,-27.35227,20.0
696,12.245361,-26.022716,20.0
697,15.410313,-24.282768,20.0
698,18.332236,-22.159867,20.0
699,20.965049,-19.687491,20.0
700,23.26723,-16.904632,20.0
701,25.202473,-13.855177,20.0
702,26.740258,-10.587217,20.0
703,27.856334,-7.1522909,20.0
704,28.533098,-3.6045685,20.0
705,29.766478,3.7603806,20.0
706,29.060459,7.4614578,20.0
707,27.89614,11.044863,20.0
708,26.291883,14.454085,20.0
709,24.272986,17.635357,20.0
710,21.87129,20.538508,20.0
711,19.124671,23.117756,20.0
712,16.076444,25.332422,20.0
713,12.774682,27.147581,20.0
714,9.2714557,28.534606,20.0
715,5.622013,29.471624,20.0
716,1.8839078,29.943857,20.0
717,-1.8839078,29.943857,20.0
718,-5.622013,29.471624,20.0
719,-9.2714557,28.534606,20.0
720,-12.774682,27.147581,20.0
721,-16.076444,25.332422,20.0
722,-19.124671,23.117756,20.0
723,-21.87129,20.538508,20.0
724,-24.272986,17.635357,20.0
725,-26.291883,14.454085,20.0
726,-27.89614,11.044863,20.0
727,-29.060459,7.4614578,20.0
728,-29.766478,3.7603806,20.0
729,-30.003061,8.8817842e-15,20.0
730,-29.766478,-3.7603806,20.0
731,-29.060459,-7.4614578,20.0
732,-27.89614,-11.044863,20.0
733,-26.291883,-14.454085,20.0
734,-24.272986,-17.635357,20.0
735,-21.87129,-20.538508,20.0
736,-19.124671,-23.117756,20.0
737,-16.076444,-25.332422,20.0
738,-12.774682,-27.147581,20.0
739,-9.2714557,-28.534606,20.0
740,-5.622013,-29.471624,20.0
741,-1.8839078,-29.943857,20.0
742,1.8839078,-29.943857,20.0
743,5.622013,-29.471624,20.0
744,9.2714557,-28.534606,20.0
745,12.774682,-27.147581,20.0
746,16.076444,-25.332422,20.0
747,19.124671,-23.117756,20.0
748,21.87129,-20.538508,20.0
749,24.272986,-17.635357,20.0
750,26.291883,-14.454085,20.0
751,27.89614,-11.044863,20.0
752,29.060459,-7.4614578,20.0
753,29.766478,-3.7603806,20.0
754,30.999857,3.9161927,20.0
755,30.264585,7.7706247,20.0
756,29.052022,11.502509,20.0
757,27.381292,15.052993,20.0
758,25.278742,18.366081,20.0
759,22.777531,21.389525,20.0
760,19.917105,24.075644,20.0
761,16.742574,26.382076,20.0
762,13.304003,28.272446,20.0
763,9.6556202,29.716943,20.0
764,5.8549622,30.692786,20.0
765,1.9619679,31.184586,20.0
766,-1.9619679,31.184586,20.0
767,-5.8549622,30.692786,20.0
768,-9.6556202,29.716943,20.0
769,-13.304003,28.272446,20.0
770,-16.742574,26.382076,20.0
771,-19.917105,24.075644,20.0
772,-22.777531,21.389525,20.0
773,-25.278742,18.366081,20.0
774,-27.381292,15.052993,20.0
775,-29.052022,11.502509,20.0
776,-30.264585,7.7706247,20.0
777,-30.999857,3.9161927,20.0
778,-31.246243,6.2172489e-15,20.0
779,-30.999857,-3.9161927,20.0
780,-30.264585,-7.7706247,20.0
781,-29.052022,-11.502509,20.0
782,-27.381292,-15.052993,20.0
783,-25.278742,-18.366081,20.0
784,-22.777531,-21.389525,20.0
785,-19.917105,-24.075644,20.0
786,-16.742574,-26.382076,20.0
787,-13.304003,-28.272446,20.0
788,-9.6556202,-29.716943,20.0
789,-5.8549622,-30.692786,20.0
790,-1.9619679,-31.184586,20.0
791,1.9619679,-31.184586,20.0
792,5.8549622,-30.692786,20.0
793,9.6556202,-29.716943,20.0
794,13.304003,-28.272446,20.0
795,16.742574,-26.382076,20.0
796,19.917105,-24.075644,20.0
797,22.777531,-21.389525,20.0
798,25.278742,-18.366081,20.0
799,27.381292,-15.052993,20.0
800,29.052022,-11.502509,20.0
801,30.264585,-7.7706247,20.0
802,30.999857,-3.9161927,20.0
803,32.233237,4.0720048,20.0
804,31.468711,8.0797917,20.0
805,30.207904,11.960155,20.0
806,28.470701,15.6519,20.0
807,26.284498,19.096805,20.0
808,23.683772,22.240542,20.0
809,20.70954,25.033533,20.0
810,17.408705,27.43173,20.0
811,13.833325,29.397312,20.0
812,10.039785,30.89928,20.0
813,6.0879113,31.913949,20.0
814,2.0400279,32.425315,20.0
815,-2.0400279,32.425315,20.0
816,-6.0879113,31.913949,20.0
817,-10.039785,30.89928,20.0
818,-13.833325,29.397312,20.0
819,-17.408705,27.43173,20.0
820,-20.70954,25.033533,20.0
821,-23.683772,22.240542,20.0
822,-26.284498,19.096805,20.0
823,-28.470701,15.6519,20.0
824,-30.207904,11.960155,20.0
825,-31.468711,8.0797917,20.0
826,-32.233237,4.0720048,20.0
827,-32.489426,3.5527137e-15,20.0
828,-32.233237,-4.0720048,20.0
829,-31.468711,-8.0797917,20.0
830,-30.207904,-11.960155,20.0
831,-28.470701,-15.6519,20.0
832,-26.284498,-19.096805,20.0
833,-23.683772,-22.240542,20.0
834,-20.70954,-25.033533,20.0
835,-17.408705,-27.43173,20.0
836,-13.833325,-29.397312,20.0
837,-10.039785,-30.89928,20.0
838,-6.0879113,-31.913949,20.0
839,-2.0400279,-32.425315,20.0
840,2.0400279,-32.425315,20.0
841,6.0879113,-31.913949,20.0
842,10.039785,-30.89928,20.0
843,13.833325,-29.397312,20.0
844,17.408705,-27.43173,20.0
845,20.70954,-25.033533,20.0
846,23.683772,-22.240542,20.0
847,26.284498,-19.096805,20.0
848,28.470701,-15.6519,20.0
849,30.207904,-11.960155,20.0
850,31.468711,-8.0797917,20.0
851,32.233237,-4.0720048,20.0
852,33.466617,4.2278169,20.0
853,32.672837,8.3889586,20.0
854,31.363786,12.417801,20.0
855,29.56011,16.250808,20.0
856,27.290254,19.82753,20.0
857,24.590013,23.09156,20.0
858,21.501974,25.991422,20.0
859,18.074836,28.481383,20.0
860,14.362646,30.522177,20.0
861,10.423949,32.081617,20.0
862,6.3208605,33.135111,20.0
863,2.118088,33.666045,20.0
864,-2.118088,33.666045,20.0
865,-6.3208605,33.135111,20.0
866,-10.423949,32.081617,20.0
867,-14.362646,30.522177,20.0
868,-18.074836,28.481383,20.0
869,-21.501974,25.991422,20.0
870,-24.590013,23.09156,20.0
871,-27.290254,19.82753,20.0
872,-29.56011,16.250808,20.0
873,-31.363786,12.417801,20.0
874,-32.672837,8.3889586,20.0
875,-33.466617,4.2278169,20.0
876,-33.732609,7.9936058e-15,20.0
877,-33.466617,-4.2278169,20.0
878,-32.672837,-8.3889586,20.0
879,-31.363786,-12.417801,20.0
880,-29.56011,-16.250808,20.0
881,-27.290254,-19.82753,20.0
882,-24.590013,-23.09156,20.0
883,-21.501974,-25.991422,20.0
884,-18.074836,-28.481383,20.0
885,-14.362646,-30.522177,20.0
886,-10.423949,-32.081617,20.0
887,-6.3208605,-33.135111,20.0
888,-2.118088,-33.666045,20.0
889,2.118088,-33.666045,20.0
890,6.3208605,-33.135111,20.0
891,10.423949,-32.081617,20.0
892,14.362646,-30.522177,20.0
893,18.074836,-28.481383,20.0
894,21.501974,-25.991422,20.0
895,24.590013,-23.09156,20.0
896,27.290254,-19.82753,20.0
897,29.56011,-16.250808,20.0
898,31.363786,-12.417801,20.0
899,32.672837,-8.3889586,20.0
900,33.466617,-4.2278169,20.0
901,2.1628987,0.27323765,-74.85436
902,2.1115979,0.54216619,-74.85436
903,2.0269959,0.80254443,-74.85436
904,1.9104269,1.0502661,-74.85436
905,1.7637294,1.2814244,-74.85436
906,1.5892168,1.4923739,-74.85436
907,1.3896413,1.6797878,-74.85436
908,1.1681503,1.8407104,-74.85436
909,0.92823692,1.9726039,-74.85436
910,0.67368467,2.0733882,-74.85436
911,0.40850802,2.141474,-74.85436
912,0.13688895,2.1757875,-74.85436
913,-0.13688895,2.1757875,-74.85436
914,-0.40850802,2.141474,-74.85436
915,-0.67368467,2.0733882,-74.85436
916,-0.92823692,1.9726039,-74.85436
917,-1.1681503,1.8407104,-74.85436
918,-1.3896413,1.6797878,-74.85436
919,-1.5892168,1.4923739,-74.85436
920,-1.7637294,1.2814244,-74.85436
921,-1.9104269,1.0502661,-74.85436
922,-2.0269959,0.80254443,-74.85436
923,-2.1115979,0.54216619,-74.85436
924,-2.1628987,0.27323765,-74.85436
925,-2.1800894,-5.5511151e-17,-74.85436
926,-2.1628987,-0.27323765,-74.85436
927,-2.1115979,-0.54216619,-74.85436
928,-2.0269959,-0.80254443,-74.85436
929,-1.9104269,-1.0502661,-74.85436
930,-1.7637294,-1.2814244,-74.85436
931,-1.5892168,-1.4923739,-74.85436
932,-1.3896413,-1.6797878,-74.85436
933,-1.1681503,-1.8407104,-74.85436
934,-0.92823692,-1.9726039,-74.85436
935,-0.67368467,-2.0733882,-74.85436
936,-0.40850802,-2.141474,-74.85436
937,-0.13688895,-2.1757875,-74.85436
938,0.13688895,-2.1757875,-74.85436
939,0.40850802,-2.141474,-74.85436
940,0.67368467,-2.0733882,-74.85436
941,0.92823692,-1.9726039,-74.85436
942,1.1681503,-1.8407104,-74.85436
943,1.3896413,-1.6797878,-74.85436
944,1.5892168,-1.4923739,-74.85436
945,1.7637294,-1.2814244,-74.85436
946,1.9104269,-1.0502661,-74.85436
947,2.0269959,-0.80254443,-74.85436
948,2.1115979,-0.54216619,-74.85436
949,2.1628987,-0.27323765,-74.85436
950,4.288634,0.54178047,-74.425779
951,4.1869138,1.0750167,-74.425779
952,4.0191634,1.5912994,-74.425779
953,3.7880284,2.0824862,-74.425779
954,3.4971539,2.540831,-74.425779
955,3.1511272,2.9591054,-74.425779
956,2.7554054,3.330713,-74.425779
957,2.3162292,3.6497932,-74.425779
958,1.8405246,3.911314,-74.425779
959,1.3357939,4.111151,-74.425779
960,0.80999695,4.2461527,-74.425779
961,0.27142583,4.3141901,-74.425779
962,-0.27142583,4.3141901,-74.425779
963,-0.80999695,4.2461527,-74.425779
964,-1.3357939,4.111151,-74.425779
965,-1.8405246,3.911314,-74.425779
966,-2.3162292,3.6497932,-74.425779
967,-2.7554054,3.330713,-74.425779
968,-3.1511272,2.9591054,-74.425779
969,-3.4971539,2.540831,-74.425779
970,-3.7880284,2.0824862,-74.425779
971,-4.0191634,1.5912994,-74.425779
972,-4.1869138,1.0750167,-74.425779
973,-4.288634,0.54178047,-74.425779
974,-4.32272,-3.3306691e-16,-74.425779
975,-4.288634,-0.54178047,-74.425779
976,-4.1869138,-1.0750167,-74.425779
977,-4.0191634,-1.5912994,-74.425779
978,-3.7880284,-2.0824862,-74.425779
979,-3.4971539,-2.540831,-74.425779
980,-3.1511272,-2.9591054,-74.425779
981,-2.7554054,-3.330713,-74.425779
982,-2.3162292,-3.6497932,-74.425779
983,-1.8405246,-3.911314,-74.425779
984,-1.3357939,-4.111151,-74.425779
985,-0.80999695,-4.2461527,-74.425779
986,-0.27142583,-4.3141901,-74.425779
987,0.27142583,-4.3141901,-74.425779
988,0.80999695,-4.2461527,-74.425779
989,1.3357939,-4.111151,-74.425779
990,1.8405246,-3.911314,-74.425779
991,2.3162292,-3.6497932,-74.425779
992,2.7554054,-3.330713,-74.425779
993,3.1511272,-2.9591054,-74.425779
994,3.4971539,-2.540831,-74.425779
995,3.7880284,-2.0824862,-74.425779
996,4.0191634,-1.5912994,-74.425779
997,4.1869138,-1.0750167,-74.425779
998,4.288634,-0.54178047,-74.425779
999,6.346119,0.80170127,-73.736829
1000,6.1955982,1.5907592,-73.736829
1001,5.947369,2.35473,-73.736829
1002,5.6053463,3.0815652,-73.736829
1003,5.174924,3.7598023,-73.736829
1004,4.66289,4.3787451,-73.736829
1005,4.0773194,4.9286325,-73.736829
1006,3.4274471,5.4007924,-73.736829
1007,2.7235219,5.7877785,-73.736829
1008,1.9766451,6.083488,-73.736829
1009,1.1985954,6.2832572,-73.736829
1010,0.40164319,6.3839357,-73.736829
1011,-0.40164319,6.3839357,-73.736829
1012,-1.1985954,6.2832572,-73.736829
1013,-1.9766451,6.083488,-73.736829
1014,-2.7235219,5.7877785,-73.736829
1015,-3.4274471,5.4007924,-73.736829
1016,-4.0773194,4.9286325,-73.736829
1017,-4.66289,4.3787451,-73.736829
1018,-5.174924,3.7598023,-73.736829
1019,-5.6053463,3.0815652,-73.736829
1020,-5.947369,2.35473,-73.736829
1021,-6.1955982,1.5907592,-73.736829
1022,-6.346119,0.80170127,-73.736829
1023,-6.3965578,1.110223e-16,-73.736829
1024,-6.346119,-0.80170127,-73.736829
1025,-6.1955982,-1.5907592,-73.736829
1026,-5.947369,-2.35473,-73.736829
1027,-5.6053463,-3.0815652,-73.736829
1028,-5.174924,-3.7598023,-73.736829
1029,-4.66289,-4.3787451,-73.736829
1030,-4.0773194,-4.9286325,-73.736829
1031,-3.4274471,-5.4007924,-73.736829
1032,-2.7235219,-5.7877785,-73.736829
1033,-1.9766451,-6.083488,-73.736829
1034,-1.1985954,-6.2832572,-73.736829
1035,-0.40164319,-6.3839357,-73.736829
1036,0.40164319,-6.3839357,-73.736829
1037,1.1985954,-6.2832572,-73.736829
1038,1.9766451,-6.083488,-73.736829
1039,2.7235219,-5.7877785,-73.736829
1040,3.4274471,-5.4007924,-73.736829
1041,4.0773194,-4.9286325,-73.736829
1042,4.66289,-4.3787451,-73.736829
1043,5.174924,-3.7598023,-73.736829
1044,5.6053463,-3.0815652,-73.736829
1045,5.947369,-2.35473,-73.736829
1046,6.1955982,-1.5907592,-73.736829
1047,6.346119,-0.80170127,-73.736829
1048,8.3137585,1.050272,-72.81863
1049,8.1165681,2.0839805,-72.81863
1050,7.7913745,3.0848234,-72.81863
1051,7.3433063,4.0370168,-72.81863
1052,6.7794298,4.9255441,-72.81863
1053,6.1086376,5.7363925,-72.81863
1054,5.3415085,6.4567747,-72.81863
1055,4.4901407,7.0753296,-72.81863
1056,3.5679607,7.5823024,-72.81863
1057,2.5895118,7.9696977,-72.81863
1058,1.5702247,8.2314061,-72.81863
1059,0.52617426,8.3633004,-72.81863
1060,-0.52617426,8.3633004,-72.81863
1061,-1.5702247,8.2314061,-72.81863
1062,-2.5895118,7.9696977,-72.81863
1063,-3.5679607,7.5823024,-72.81863
1064,-4.4901407,7.0753296,-72.81863
1065,-5.3415085,6.4567747,-72.81863
1066,-6.1086376,5.7363925,-72.81863
1067,-6.7794298,4.9255441,-72.81863
1068,-7.3433063,4.0370168,-72.81863
1069,-7.7913745,3.0848234,-72.81863
1070,-8.1165681,2.0839805,-72.81863
1071,-8.3137585,1.050272,-72.81863
1072,-8.3798361,0.0,-72.81863
1073,-8.3137585,-1.050272,-72.81863
1074,-8.1165681,-2.0839805,-72.81863
1075,-7.7913745,-3.0848234,-72.81863
1076,-7.3433063,-4.0370168,-72.81863
1077,-6.7794298,-4.9255441,-72.81863
1078,-6.1086376,-5.7363925,-72.81863
1079,-5.3415085,-6.4567747,-72.81863
1080,-4.4901407,-7.0753296,-72.81863
1081,-3.5679607,-7.5823024,-72.81863
1082,-2.5895118,-7.9696977,-72.81863
1083,-1.5702247,-8.2314061,-72.81863
1084,-0.52617426,-8.3633004,-72.81863
1085,0.52617426,-8.3633004,-72.81863
1086,1.5702247,-8.2314061,-72.81863
1087,2.5895118,-7.9696977,-72.81863
1088,3.5679607,-7.5823024,-72.81863
1089,4.4901407,-7.0753296,-72.81863
1090,5.3415085,-6.4567747,-72.81863
1091,6.1086376,-5.7363925,-72.81863
1092,6.7794298,-4.9255441,-72.81863
1093,7.3433063,-4.0370168,-72.81863
1094,7.7913745,-3.0848234,-72.81863
1095,8.1165681,-2.0839805,-72.81863
1096,8.3137585,-1.050272,-72.81863
1097,10.179585,1.2859806,-71.704821
1098,9.9381395,2.5516805,-71.704821
1099,9.5399639,3.7771389,-71.704821
1100,8.9913374,4.9430296,-71.704821
1101,8.3009121,6.0309657,-71.704821
1102,7.4795765,7.0237899,-71.704821
1103,6.5402835,7.9058447,-71.704821
1104,5.4978464,8.6632197,-71.704821
1105,4.3687049,9.2839704,-71.704821
1106,3.1706663,9.7583075,-71.704821
1107,1.9226244,10.07875,-71.704821
1108,0.6442616,10.240245,-71.704821
1109,-0.6442616,10.240245,-71.704821
1110,-1.9226244,10.07875,-71.704821
1111,-3.1706663,9.7583075,-71.704821
1112,-4.3687049,9.2839704,-71.704821
1113,-5.4978464,8.6632197,-71.704821
1114,-6.5402835,7.9058447,-71.704821
1115,-7.4795765,7.0237899,-71.704821
1116,-8.3009121,6.0309657,-71.704821
1117,-8.9913374,4.9430296,-71.704821
1118,-9.5399639,3.7771389,-71.704821
1119,-9.9381395,2.5516805,-71.704821
1120,-10.179585,1.2859806,-71.704821
1121,-10.260492,1.7763568e-15,-71.704821
1122,-10.179585,-1.2859806,-71.704821
1123,-9.9381395,-2.5516805,-71.704821
1124,-9.5399639,-3.7771389,-71.704821
1125,-8.9913374,-4.9430296,-71.704821
1126,-8.3009121,-6.0309657,-71.704821
1127,-7.4795765,-7.0237899,-71.704821
1128,-6.5402835,-7.9058447,-71.704821
1129,-5.4978464,-8.6632197,-71.704821
1130,-4.3687049,-9.2839704,-71.704821
1131,-3.1706663,-9.7583075,-71.704821
1132,-1.9226244,-10.07875,-71.704821
1133,-0.6442616,-10.240245,-71.704821
1134,0.6442616,-10.240245,-71.704821
1135,1.9226244,-10.07875,-71.704821
1136,3.1706663,-9.7583075,-71.704821
1137,4.3687049,-9.2839704,-71.704821
1138,5.4978464,-8.6632197,-71.704821
1139,6.5402835,-7.9058447,-71.704821
1140,7.4795765,-7.0237899,-71.704821
1141,8.3009121,-6.0309657,-71.704821
1142,8.9913374,-4.9430296,-71.704821
1143,9.5399639,-3.7771389,-71.704821
1144,9.9381395,-2.5516805,-71.704821
1145,10.179585,-1.2859806,-71.704821
1146,11.939318,1.5082866,-70.427262
1147,11.656135,2.9927867,-70.427262
1148,11.189127,4.4300887,-70.427262
1149,10.54566,5.7975256,-70.427262
1150,9.7358815,7.073532,-70.427262
1151,8.7725626,8.2379846,-70.427262
1152,7.670895,9.2725192,-70.427262
1153,6.4482529,10.160821,-70.427262
1154,5.123918,10.88888,-70.427262
1155,3.7187758,11.445215,-70.427262
1156,2.2549864,11.821052,-70.427262
1157,0.75563439,12.010465,-70.427262
1158,-0.75563439,12.010465,-70.427262
1159,-2.2549864,11.821052,-70.427262
1160,-3.7187758,11.445215,-70.427262
1161,-5.123918,10.88888,-70.427262
1162,-6.4482529,10.160821,-70.427262
1163,-7.670895,9.2725192,-70.427262
1164,-8.7725626,8.2379846,-70.427262
1165,-9.7358815,7.073532,-70.427262
1166,-10.54566,5.7975256,-70.427262
1167,-11.189127,4.4300887,-70.427262
1168,-11.656135,2.9927867,-70.427262
1169,-11.939318,1.5082866,-70.427262
1170,-12.034211,1.110223e-15,-70.427262
1171,-11.939318,-1.5082866,-70.427262
1172,-11.656135,-2.9927867,-70.427262
1173,-11.189127,-4.4300887,-70.427262
1174,-10.54566,-5.7975256,-70.427262
1175,-9.7358815,-7.073532,-70.427262
1176,-8.7725626,-8.2379846,-70.427262
1177,-7.670895,-9.2725192,-70.427262
1178,-6.4482529,-10.160821,-70.427262
1179,-5.123918,-10.88888,-70.427262
1180,-3.7187758,-11.445215,-70.427262
1181,-2.2549864,-11.821052,-70.427262
1182,-0.75563439,-12.010465,-70.427262
1183,0.75563439,-12.010465,-70.427262
1184,2.2549864,-11.821052,-70.427262
1185,3.7187758,-11.445215,-70.427262
1186,5.123918,-10.88888,-70.427262
1187,6.4482529,-10.160821,-70.427262
1188,7.670895,-9.2725192,-70.427262
1189,8.7725626,-8.2379846,-70.427262
1190,9.7358815,-7.073532,-70.427262
1191,10.54566,-5.7975256,-70.427262
1192,11.189127,-4.4300887,-70.427262
1193,11.656135,-2.9927867,-70.427262
1194,11.939318,-1.5082866,-70.427262
1195,13.593872,1.7173054,-69.013886
1196,13.271445,3.4075279,-69.013886
1197,12.739719,5.0440117,-69.013886
1198,12.007081,6.6009484,-69.013886
1199,11.085083,8.0537841,-69.013886
1200,9.9882669,9.3796069,-69.013886
1201,8.73393,10.557508,-69.013886
1202,7.3418537,11.56891,-69.013886
1203,5.8339921,12.397864,-69.013886
1204,4.2341249,13.031296,-69.013886
1205,2.567483,13.459217,-69.013886
1206,0.86035042,13.674878,-69.013886
1207,-0.86035042,13.674878,-69.013886
1208,-2.567483,13.459217,-69.013886
1209,-4.2341249,13.031296,-69.013886
1210,-5.8339921,12.397864,-69.013886
1211,-7.3418537,11.56891,-69.013886
1212,-8.73393,10.557508,-69.013886
1213,-9.9882669,9.3796069,-69.013886
1214,-11.085083,8.0537841,-69.013886
1215,-12.007081,6.6009484,-69.013886
1216,-12.739719,5.0440117,-69.013886
1217,-13.271445,3.4075279,-69.013886
1218,-13.593872,1.7173054,-69.013886
1219,-13.701916,-1.110223e-15,-69.013886
1220,-13.593872,-1.7173054,-69.013886
1221,-13.271445,-3.4075279,-69.013886
1222,-12.739719,-5.0440117,-69.013886
1223,-12.007081,-6.6009484,-69.013886
1224,-11.085083,-8.0537841,-69.013886
1225,-9.9882669,-9.3796069,-69.013886
1226,-8.73393,-10.557508,-69.013886
1227,-7.3418537,-11.56891,-69.013886
1228,-5.8339921,-12.397864,-69.013886
1229,-4.2341249,-13.031296,-69.013886
1230,-2.567483,-13.459217,-69.013886
1231,-0.86035042,-13.674878,-69.013886
1232,0.86035042,-13.674878,-69.013886
1233,2.567483,-13.459217,-69.013886
1234,4.2341249,-13.031296,-69.013886
1235,5.8339921,-12.397864,-69.013886
1236,7.3418537,-11.56891,-69.013886
1237,8.73393,-10.557508,-69.013886
1238,9.9882669,-9.3796069,-69.013886
1239,11.085083,-8.0537841,-69.013886
1240,12.007081,-6.6009484,-69.013886
1241,12.739719,-5.0440117,-69.013886
1242,13.271445,-3.4075279,-69.013886
1243,13.593872,-1.7173054,-69.013886
1244,15.147206,1.9135372,-67.488107
1245,14.787936,3.7968967,-67.488107
1246,14.195452,5.6203769,-67.488107
1247,13.379096,7.3552204,-67.488107
1248,12.351744,8.9740677,-67.488107
1249,11.129598,10.451389,-67.488107
1250,9.7319318,11.763885,-67.488107
1251,8.1807869,12.890857,-67.488107
1252,6.5006261,13.814534,-67.488107
1253,4.7179466,14.520346,-67.488107
1254,2.8608622,14.997165,-67.488107
1255,0.95866027,15.237469,-67.488107
1256,-0.95866027,15.237469,-67.488107
1257,-2.8608622,14.997165,-67.488107
1258,-4.7179466,14.520346,-67.488107
1259,-6.5006261,13.814534,-67.488107
1260,-8.1807869,12.890857,-67.488107
1261,-9.7319318,11.763885,-67.488107
1262,-11.129598,10.451389,-67.488107
1263,-12.351744,8.9740677,-67.488107
1264,-13.379096,7.3552204,-67.488107
1265,-14.195452,5.6203769,-67.488107
1266,-14.787936,3.7968967,-67.488107
1267,-15.147206,1.9135372,-67.488107
1268,-15.267596,0.0,-67.488107
1269,-15.147206,-1.9135372,-67.488107
1270,-14.787936,-3.7968967,-67.488107
1271,-14.195452,-5.6203769,-67.488107
1272,-13.379096,-7.3552204,-67.488107
1273,-12.351744,-8.9740677,-67.488107
1274,-11.129598,-10.451389,-67.488107
1275,-9.7319318,-11.763885,-67.488107
1276,-8.1807869,-12.890857,-67.488107
1277,-6.5006261,-13.814534,-67.488107
1278,-4.7179466,-14.520346,-67.488107
1279,-2.8608622,-14.997165,-67.488107
1280,-0.95866027,-15.237469,-67.488107
1281,0.95866027,-15.237469,-67.488107
1282,2.8608622,-14.997165,-67.488107
1283,4.7179466,-14.520346,-67.488107
1284,6.5006261,-13.814534,-67.488107
1285,8.1807869,-12.890857,-67.488107
1286,9.7319318,-11.763885,-67.488107
1287,11.129598,-10.451389,-67.488107
1288,12.351744,-8.9740677,-67.488107
1289,13.379096,-7.3552204,-67.488107
1290,14.195452,-5.6203769,-67.488107
1291,14.787936,-3.7968967,-67.488107
1292,15.147206,-1.9135372,-67.488107
1293,16.604798,2.0976738,-65.869084
1294,16.210956,4.162266,-65.869084
1295,15.561457,6.1612168,-65.869084
1296,14.666545,8.0630016,-65.869084
1297,13.540333,9.837628,-65.869084
1298,12.200582,11.457109,-65.869084
1299,10.66842,12.895905,-65.869084
1300,8.9680111,14.131324,-65.869084
1301,7.1261711,15.143884,-65.869084
1302,5.1719471,15.917616,-65.869084
1303,3.1361584,16.440318,-65.869084
1304,1.0509106,16.703746,-65.869084
1305,-1.0509106,16.703746,-65.869084
1306,-3.1361584,16.440318,-65.869084
1307,-5.1719471,15.917616,-65.869084
1308,-7.1261711,15.143884,-65.869084
1309,-8.9680111,14.131324,-65.869084
1310,-10.66842,12.895905,-65.869084
1311,-12.200582,11.457109,-65.869084
1312,-13.540333,9.837628,-65.869084
1313,-14.666545,8.0630016,-65.869084
1314,-15.561457,6.1612168,-65.869084
1315,-16.210956,4.162266,-65.869084
1316,-16.604798,2.0976738,-65.869084
1317,-16.736772,-1.3322676e-15,-65.869084
1318,-16.604798,-2.0976738,-65.869084
1319,-16.210956,-4.162266,-65.869084
1320,-15.561457,-6.1612168,-65.869084
1321,-14.666545,-8.0630016,-65.869084
1322,-13.540333,-9.837628,-65.869084
1323,-12.200582,-11.457109,-65.869084
1324,-10.66842,-12.895905,-65.869084
1325,-8.9680111,-14.131324,-65.869084
1326,-7.1261711,-15.143884,-65.869084
1327,-5.1719471,-15.917616,-65.869084
1328,-3.1361584,-16.440318,-65.869084
1329,-1.0509106,-16.703746,-65.869084
1330,1.0509106,-16.703746,-65.869084
1331,3.1361584,-16.440318,-65.869084
1332,5.1719471,-15.917616,-65.869084
1333,7.1261711,-15.143884,-65.869084
1334,8.9680111,-14.131324,-65.869084
1335,10.66842,-12.895905,-65.869084
1336,12.200582,-11.457109,-65.869084
1337,13.540333,-9.837628,-65.869084
1338,14.666545,-8.0630016,-65.869084
1339,15.561457,-6.1612168,-65.869084
1340,16.210956,-4.162266,-65.869084
1341,16.604798,-2.0976738,-65.869084
1342,17.97268,2.2704775,-64.172314
1343,17.546394,4.5051482,-64.172314
1344,16.84339,6.66877,-64.172314
1345,15.874757,8.7272214,-64.172314
1346,14.655769,10.648039,-64.172314
1347,13.20565,12.400931,-64.172314
1348,11.547271,13.958253,-64.172314
1349,9.7067844,15.295445,-64.172314
1350,7.713216,16.391418,-64.172314
1351,5.5980055,17.228889,-64.172314
1352,3.3945111,17.794651,-64.172314
1353,1.1374833,18.079779,-64.172314
1354,-1.1374833,18.079779,-64.172314
1355,-3.3945111,17.794651,-64.172314
1356,-5.5980055,17.228889,-64.172314
1357,-7.713216,16.391418,-64.172314
1358,-9.7067844,15.295445,-64.172314
1359,-11.547271,13.958253,-64.172314
1360,-13.20565,12.400931,-64.172314
1361,-14.655769,10.648039,-64.172314
1362,-15.874757,8.7272214,-64.172314
1363,-16.84339,6.66877,-64.172314
1364,-17.546394,4.5051482,-64.172314
1365,-17.97268,2.2704775,-64.172314
1366,-18.115526,-3.1086245e-15,-64.172314
1367,-17.97268,-2.2704775,-64.172314
1368,-17.546394,-4.5051482,-64.172314
1369,-16.84339,-6.66877,-64.172314
1370,-15.874757,-8.7272214,-64.172314
1371,-14.655769,-10.648039,-64.172314
1372,-13.20565,-12.400931,-64.172314
1373,-11.547271,-13.958253,-64.172314
1374,-9.7067844,-15.295445,-64.172314
1375,-7.713216,-16.391418,-64.172314
1376,-5.5980055,-17.228889,-64.172314
1377,-3.3945111,-17.794651,-64.172314
1378,-1.1374833,-18.079779,-64.172314
1379,1.1374833,-18.079779,-64.172314
1380,3.3945111,-17.794651,-64.172314
1381,5.5980055,-17.228889,-64.172314
1382,7.713216,-16.391418,-64.172314
1383,9.7067844,-15.295445,-64.172314
1384,11.547271,-13.958253,-64.172314
1385,13.20565,-12.400931,-64.172314
1386,14.655769,-10.648039,-64.172314
1387,15.874757,-8.7272214,-64.172314
1388,16.84339,-6.66877,-64.172314
1389,17.546394,-4.5051482,-64.172314
1390,17.97268,-2.2704775,-64.172314
1391,19.256882,2.43271,-62.410297
1392,18.800137,4.8270546,-62.410297
1393,18.046902,7.1452738,-62.410297
1394,17.009056,9.3508077,-62.410297
1395,15.702968,11.408874,-62.410297
1396,14.149234,13.287015,-62.410297
1397,12.372358,14.955612,-62.410297
1398,10.400363,16.38835,-62.410297
1399,8.2643485,17.562635,-62.410297
1400,5.9979999,18.459946,-62.410297
1401,3.6370592,19.066132,-62.410297
1402,1.2187599,19.371634,-62.410297
1403,-1.2187599,19.371634,-62.410297
1404,-3.6370592,19.066132,-62.410297
1405,-5.9979999,18.459946,-62.410297
1406,-8.2643485,17.562635,-62.410297
1407,-10.400363,16.38835,-62.410297
1408,-12.372358,14.955612,-62.410297
1409,-14.149234,13.287015,-62.410297
1410,-15.702968,11.408874,-62.410297
1411,-17.009056,9.3508077,-62.410297
1412,-18.046902,7.1452738,-62.410297
1413,-18.800137,4.8270546,-62.410297
1414,-19.256882,2.43271,-62.410297
1415,-19.409935,1.7763568e-15,-62.410297
1416,-19.256882,-2.43271,-62.410297
1417,-18.800137,-4.8270546,-62.410297
1418,-18.046902,-7.1452738,-62.410297
1419,-17.009056,-9.3508077,-62.410297
1420,-15.702968,-11.408874,-62.410297
1421,-14.149234,-13.287015,-62.410297
1422,-12.372358,-14.955612,-62.410297
1423,-10.400363,-16.38835,-62.410297
1424,-8.2643485,-17.562635,-62.410297
1425,-5.9979999,-18.459946,-62.410297
1426,-3.6370592,-19.066132,-62.410297
1427,-1.2187599,-19.371634,-62.410297
1428,1.2187599,-19.371634,-62.410297
1429,3.6370592,-19.066132,-62.410297
1430,5.9979999,-18.459946,-62.410297
1431,8.2643485,-17.562635,-62.410297
1432,10.400363,-16.38835,-62.410297
1433,12.372358,-14.955612,-62.410297
1434,14.149234,-13.287015,-62.410297
1435,15.702968,-11.408874,-62.410297
1436,17.009056,-9.3508077,-62.410297
1437,18.046902,-7.1452738,-62.410297
1438,18.800137,-4.8270546,-62.410297
1439,19.256882,-2.43271,-62.410297
1440,20.463137,2.5850954,-60.593135
1441,19.977781,5.1294223,-60.593135
1442,19.177363,7.5928551,-60.593135
1443,18.074507,9.9365441,-60.593135
1444,16.686604,12.123528,-60.593135
1445,15.035545,14.119316,-60.593135
1446,13.147365,15.892435,-60.593135
1447,11.051844,17.41492,-60.593135
1448,8.7820289,18.662761,-60.593135
1449,6.3737158,19.61628,-60.593135
1450,3.8648853,20.260438,-60.593135
1451,1.2951033,20.585077,-60.593135
1452,-1.2951033,20.585077,-60.593135
1453,-3.8648853,20.260438,-60.593135
1454,-6.3737158,19.61628,-60.593135
1455,-8.7820289,18.662761,-60.593135
1456,-11.051844,17.41492,-60.593135
1457,-13.147365,15.892435,-60.593135
1458,-15.035545,14.119316,-60.593135
1459,-16.686604,12.123528,-60.593135
1460,-18.074507,9.9365441,-60.593135
1461,-19.177363,7.5928551,-60.593135
1462,-19.977781,5.1294223,-60.593135
1463,-20.463137,2.5850954,-60.593135
1464,-20.625777,1.3322676e-15,-60.593135
1465,-20.463137,-2.5850954,-60.593135
1466,-19.977781,-5.1294223,-60.593135
1467,-19.177363,-7.5928551,-60.593135
1468,-18.074507,-9.9365441,-60.593135
1469,-16.686604,-12.123528,-60.593135
1470,-15.035545,-14.119316,-60.593135
1471,-13.147365,-15.892435,-60.593135
1472,-11.051844,-17.41492,-60.593135
1473,-8.7820289,-18.662761,-60.593135
1474,-6.3737158,-19.61628,-60.593135
1475,-3.8648853,-20.260438,-60.593135
1476,-1.2951033,-20.585077,-60.593135
1477,1.2951033,-20.585077,-60.593135
1478,3.8648853,-20.260438,-60.593135
1479,6.3737158,-19.61628,-60.593135
1480,8.7820289,-18.662761,-60.593135
1481,11.051844,-17.41492,-60.593135
1482,13.147365,-15.892435,-60.593135
1483,15.035545,-14.119316,-60.593135
1484,16.686604,-12.123528,-60.593135
1485,18.074507,-9.9365441,-60.593135
1486,19.177363,-7.5928551,-60.593135
1487,19.977781,-5.1294223,-60.593135
1488,20.463137,-2.5850954,-60.593135
1489,21.596742,2.728303,-58.729025
1490,21.084499,5.4135791,-58.729025
1491,20.23974,8.0134798,-58.729025
1492,19.075788,10.487003,-58.729025
1493,17.611,12.79514,-58.729025
1494,15.868475,14.90149,-58.729025
1495,13.875696,16.772835,-58.729025
1496,11.664088,18.379662,-58.729025
1497,9.2685308,19.696631,-58.729025
1498,6.7268033,20.702972,-58.729025
1499,4.07899,21.382815,-58.729025
1500,1.3668487,21.725438,-58.729025
1501,-1.3668487,21.725438,-58.729025
1502,-4.07899,21.382815,-58.729025
1503,-6.7268033,20.702972,-58.729025
1504,-9.2685308,19.696631,-58.729025
1505,-11.664088,18.379662,-58.729025
1506,-13.875696,16.772835,-58.729025
1507,-15.868475,14.90149,-58.729025
1508,-17.611,12.79514,-58.729025
1509,-19.075788,10.487003,-58.729025
1510,-20.23974,8.0134798,-58.729025
1511,-21.084499,5.4135791,-58.729025
1512,-21.596742,2.728303,-58.729025
1513,-21.768393,1.7763568e-15,-58.729025
1514,-21.596742,-2.728303,-58.729025
1515,-21.084499,-5.4135791,-58.729025
1516,-20.23974,-8.0134798,-58.729025
1517,-19.075788,-10.487003,-58.729025
1518,-17.611,-12.79514,-58.729025
1519,-15.868475,-14.90149,-58.729025
1520,-13.875696,-16.772835,-58.729025
1521,-11.664088,-18.379662,-58.729025
1522,-9.2685308,-19.696631,-58.729025
1523,-6.7268033,-20.702972,-58.729025
1524,-4.07899,-21.382815,-58.729025
1525,-1.3668487,-21.725438,-58.729025
1526,1.3668487,-21.725438,-58.729025
1527,4.07899,-21.382815,-58.729025
1528,6.7268033,-20.702972,-58.729025
1529,9.2685308,-19.696631,-58.729025
1530,11.664088,-18.379662,-58.729025
1531,13.875696,-16.772835,-58.729025
1532,15.868475,-14.90149,-58.729025
1533,17.611,-12.79514,-58.729025
1534,19.075788,-10.487003,-58.729025
1535,20.23974,-8.0134798,-58.729025
1536,21.084499,-5.4135791,-58.729025
1537,21.596742,-2.728303,-58.729025
1538,22.662516,2.8629415,-56.824671
1539,22.124993,5.6807328,-56.824671
1540,21.238547,8.4089355,-56.824671
1541,20.017155,11.004524,-56.824671
1542,18.480081,13.426565,-56.824671
1543,16.651566,15.636861,-56.824671
1544,14.560445,17.600554,-56.824671
1545,12.239697,19.286676,-56.824671
1546,9.7259217,20.668636,-56.824671
1547,7.058763,21.724639,-56.824671
1548,4.2802833,22.438031,-56.824671
1549,1.434301,22.797562,-56.824671
1550,-1.434301,22.797562,-56.824671
1551,-4.2802833,22.438031,-56.824671
1552,-7.058763,21.724639,-56.824671
1553,-9.7259217,20.668636,-56.824671
1554,-12.239697,19.286676,-56.824671
1555,-14.560445,17.600554,-56.824671
1556,-16.651566,15.636861,-56.824671
1557,-18.480081,13.426565,-56.824671
1558,-20.017155,11.004524,-56.824671
1559,-21.238547,8.4089355,-56.824671
1560,-22.124993,5.6807328,-56.824671
1561,-22.662516,2.8629415,-56.824671
1562,-22.842637,2.220446e-15,-56.824671
1563,-22.662516,-2.8629415,-56.824671
1564,-22.124993,-5.6807328,-56.824671
1565,-21.238547,-8.4089355,-56.824671
1566,-20.017155,-11.004524,-56.824671
1567,-18.480081,-13.426565,-56.824671
1568,-16.651566,-15.636861,-56.824671
1569,-14.560445,-17.600554,-56.824671
1570,-12.239697,-19.286676,-56.824671
1571,-9.7259217,-20.668636,-56.824671
1572,-7.058763,-21.724639,-56.824671
1573,-4.2802833,-22.438031,-56.824671
1574,-1.434301,-22.797562,-56.824671
1575,1.434301,-22.797562,-56.824671
1576,4.2802833,-22.438031,-56.824671
1577,7.058763,-21.724639,-56.824671
1578,9.7259217,-20.668636,-56.824671
1579,12.239697,-19.286676,-56.824671
1580,14.560445,-17.600554,-56.824671
1581,16.651566,-15.636861,-56.824671
1582,18.480081,-13.426565,-56.824671
1583,20.017155,-11.004524,-56.824671
1584,21.238547,-8.4089355,-56.824671
1585,22.124993,-5.6807328,-56.824671
1586,22.662516,-2.8629415,-56.824671
1587,23.664797,2.9895591,-54.885588
1588,23.103502,5.9319711,-54.885588
1589,22.177851,8.7808323,-54.885588
1590,20.902442,11.491215,-54.885588
1591,19.297389,14.020374,-54.885588
1592,17.388004,16.328423,-54.885588
1593,15.204401,18.378963,-54.885588
1594,12.781014,20.139656,-54.885588
1595,10.156064,21.582735,-54.885588
1596,7.3709466,22.685441,-54.885588
1597,4.4695848,23.430384,-54.885588
1598,1.497735,23.805816,-54.885588
1599,-1.497735,23.805816,-54.885588
1600,-4.4695848,23.430384,-54.885588
1601,-7.3709466,22.685441,-54.885588
1602,-10.156064,21.582735,-54.885588
1603,-12.781014,20.139656,-54.885588
1604,-15.204401,18.378963,-54.885588
1605,-17.388004,16.328423,-54.885588
1606,-19.297389,14.020374,-54.885588
1607,-20.902442,11.491215,-54.885588
1608,-22.177851,8.7808323,-54.885588
1609,-23.103502,5.9319711,-54.885588
1610,-23.664797,2.9895591,-54.885588
1611,-23.852884,-2.220446e-15,-54.885588
1612,-23.664797,-2.9895591,-54.885588
1613,-23.103502,-5.9319711,-54.885588
1614,-22.177851,-8.7808323,-54.885588
1615,-20.902442,-11.491215,-54.885588
1616,-19.297389,-14.020374,-54.885588
1617,-17.388004,-16.328423,-54.885588
1618,-15.204401,-18.378963,-54.885588
1619,-12.781014,-20.139656,-54.885588
1620,-10.156064,-21.582735,-54.885588
1621,-7.3709466,-22.685441,-54.885588
1622,-4.4695848,-23.430384,-54.885588
1623,-1.497735,-23.805816,-54.885588
1624,1.497735,-23.805816,-54.885588
1625,4.4695848,-23.430384,-54.885588
1626,7.3709466,-22.685441,-54.885588
1627,10.156064,-21.582735,-54.885588
1628,12.781014,-20.139656,-54.885588
1629,15.204401,-18.378963,-54.885588
1630,17.388004,-16.328423,-54.885588
1631,19.297389,-14.020374,-54.885588
1632,20.902442,-11.491215,-54.885588
1633,22.177851,-8.7808323,-54.885588
1634,23.103502,-5.9319711,-54.885588
1635,23.664797,-2.9895591,-54.885588
1636,24.607475,3.108647,-52.916356
1637,24.02382,6.1682687,-52.916356
1638,23.061296,9.1306132,-52.916356
1639,21.735082,11.948962,-52.916356
1640,20.066092,14.578869,-52.916356
1641,18.080648,16.978859,-52.916356
1642,15.810062,19.111082,-52.916356
1643,13.290141,20.941911,-52.916356
1644,10.560627,22.442474,-52.916356
1645,7.6645652,23.589106,-52.916356
1646,4.6476289,24.363724,-52.916356
1647,1.5573966,24.754111,-52.916356
1648,-1.5573966,24.754111,-52.916356
1649,-4.6476289,24.363724,-52.916356
1650,-7.6645652,23.589106,-52.916356
1651,-10.560627,22.442474,-52.916356
1652,-13.290141,20.941911,-52.916356
1653,-15.810062,19.111082,-52.916356
1654,-18.080648,16.978859,-52.916356
1655,-20.066092,14.578869,-52.916356
1656,-21.735082,11.948962,-52.916356
1657,-23.061296,9.1306132,-52.916356
1658,-24.02382,6.1682687,-52.916356
1659,-24.607475,3.108647,-52.916356
1660,-24.803054,-2.6645353e-15,-52.916356
1661,-24.607475,-3.108647,-52.916356
1662,-24.02382,-6.1682687,-52.916356
1663,-23.061296,-9.1306132,-52.916356
1664,-21.735082,-11.948962,-52.916356
1665,-20.066092,-14.578869,-52.916356
1666,-18.080648,-16.978859,-52.916356
1667,-15.810062,-19.111082,-52.916356
1668,-13.290141,-20.941911,-52.916356
1669,-10.560627,-22.442474,-52.916356
1670,-7.6645652,-23.589106,-52.916356
1671,-4.6476289,-24.363724,-52.916356
1672,-1.5573966,-24.754111,-52.916356
1673,1.5573966,-24.754111,-52.916356
1674,4.6476289,-24.363724,-52.916356
1675,7.6645652,-23.589106,-52.916356
1676,10.560627,-22.442474,-52.916356
1677,13.290141,-20.941911,-52.916356
1678,15.810062,-19.111082,-52.916356
1679,18.080648,-16.978859,-52.916356
1680,20.066092,-14.578869,-52.916356
1681,21.735082,-11.948962,-52.916356
1682,23.061296,-9.1306132,-52.916356
1683,24.02382,-6.1682687,-52.916356
1684,24.607475,-3.108647,-52.916356
1685,25.494024,3.2206441,-50.920803
1686,24.889342,6.3904968,-50.920803
1687,23.89214,9.4595675,-50.920803
1688,22.518145,12.379455,-50.920803
1689,20.789026,15.104111,-50.920803
1690,18.732051,17.590567,-50.920803
1691,16.379661,19.799609,-50.920803
1692,13.768953,21.696399,-50.920803
1693,10.941101,23.251023,-50.920803
1694,7.9407013,24.438966,-50.920803
1695,4.8150719,25.241491,-50.920803
1696,1.613506,25.645943,-50.920803
1697,-1.613506,25.645943,-50.920803
1698,-4.8150719,25.241491,-50.920803
1699,-7.9407013,24.438966,-50.920803
1700,-10.941101,23.251023,-50.920803
1701,-13.768953,21.696399,-50.920803
1702,-16.379661,19.799609,-50.920803
1703,-18.732051,17.590567,-50.920803
1704,-20.789026,15.104111,-50.920803
1705,-22.518145,12.379455,-50.920803
1706,-23.89214,9.4595675,-50.920803
1707,-24.889342,6.3904968,-50.920803
1708,-25.494024,3.2206441,-50.920803
1709,-25.696649,3.5527137e-15,-50.920803
1710,-25.494024,-3.2206441,-50.920803
1711,-24.889342,-6.3904968,-50.920803
1712,-23.89214,-9.4595675,-50.920803
1713,-22.518145,-12.379455,-50.920803
1714,-20.789026,-15.104111,-50.920803
1715,-18.732051,-17.590567,-50.920803
1716,-16.379661,-19.799609,-50.920803
1717,-13.768953,-21.696399,-50.920803
1718,-10.941101,-23.251023,-50.920803
1719,-7.9407013,-24.438966,-50.920803
1720,-4.8150719,-25.241491,-50.920803
1721,-1.613506,-25.645943,-50.920803
1722,1.613506,-25.645943,-50.920803
1723,4.8150719,-25.241491,-50.920803
1724,7.9407013,-24.438966,-50.920803
1725,10.941101,-23.251023,-50.920803
1726,13.768953,-21.696399,-50.920803
1727,16.379661,-19.799609,-50.920803
1728,18.732051,-17.590567,-50.920803
1729,20.789026,-15.104111,-50.920803
1730,22.518145,-12.379455,-50.920803
1731,23.89214,-9.4595675,-50.920803
1732,24.889342,-6.3904968,-50.920803
1733,25.494024,-3.2206441,-50.920803
1734,26.327547,3.3259426,-48.902157
1735,25.703095,6.5994331,-48.902157
1736,24.67329,9.7688466,-48.902157
1737,23.254373,12.784199,-48.902157
1738,21.46872,15.597938,-48.902157
1739,19.344493,18.165688,-48.902157
1740,16.915191,20.446954,-48.902157
1741,14.219127,22.405759,-48.902157
1742,11.298819,24.011212,-48.902157
1743,8.2003213,25.237994,-48.902157
1744,4.9724999,26.066757,-48.902157
1745,1.6662593,26.484433,-48.902157
1746,-1.6662593,26.484433,-48.902157
1747,-4.9724999,26.066757,-48.902157
1748,-8.2003213,25.237994,-48.902157
1749,-11.298819,24.011212,-48.902157
1750,-14.219127,22.405759,-48.902157
1751,-16.915191,20.446954,-48.902157
1752,-19.344493,18.165688,-48.902157
1753,-21.46872,15.597938,-48.902157
1754,-23.254373,12.784199,-48.902157
1755,-24.67329,9.7688466,-48.902157
1756,-25.703095,6.5994331,-48.902157
1757,-26.327547,3.3259426,-48.902157
1758,-26.536797,8.8817842e-16,-48.902157
1759,-26.327547,-3.3259426,-48.902157
1760,-25.703095,-6.5994331,-48.902157
1761,-24.67329,-9.7688466,-48.902157
1762,-23.254373,-12.784199,-48.902157
1763,-21.46872,-15.597938,-48.902157
1764,-19.344493,-18.165688,-48.902157
1765,-16.915191,-20.446954,-48.902157
1766,-14.219127,-22.405759,-48.902157
1767,-11.298819,-24.011212,-48.902157
1768,-8.2003213,-25.237994,-48.902157
1769,-4.9724999,-26.066757,-48.902157
1770,-1.6662593,-26.484433,-48.902157
1771,1.6662593,-26.484433,-48.902157
1772,4.9724999,-26.066757,-48.902157
1773,8.2003213,-25.237994,-48.902157
1774,11.298819,-24.011212,-48.902157
1775,14.219127,-22.405759,-48.902157
1776,16.915191,-20.446954,-48.902157
1777,19.344493,-18.165688,-48.902157
1778,21.46872,-15.597938,-48.902157
1779,23.254373,-12.784199,-48.902157
1780,24.67329,-9.7688466,-48.902157
1781,25.703095,-6.5994331,-48.902157
1782,26.327547,-3.3259426,-48.902157
1783,27.110813,3.4248921,-46.863158
1784,26.467783,6.7957717,-46.863158
1785,25.407341,10.059478,-46.863158
1786,23.946209,13.16454,-46.863158
1787,22.107432,16.06199,-46.863158
1788,19.920007,18.706132,-46.863158
1789,17.418432,21.055267,-46.863158
1790,14.642158,23.072349,-46.863158
1791,11.634968,24.725565,-46.863158
1792,8.4442876,25.988845,-46.863158
1793,5.1204359,26.842265,-46.863158
1794,1.7158319,27.272367,-46.863158
1795,-1.7158319,27.272367,-46.863158
1796,-5.1204359,26.842265,-46.863158
1797,-8.4442876,25.988845,-46.863158
1798,-11.634968,24.725565,-46.863158
1799,-14.642158,23.072349,-46.863158
1800,-17.418432,21.055267,-46.863158
1801,-19.920007,18.706132,-46.863158
1802,-22.107432,16.06199,-46.863158
1803,-23.946209,13.16454,-46.863158
1804,-25.407341,10.059478,-46.863158
1805,-26.467783,6.7957717,-46.863158
1806,-27.110813,3.4248921,-46.863158
1807,-27.326289,3.9968029e-15,-46.863158
1808,-27.110813,-3.4248921,-46.863158
1809,-26.467783,-6.7957717,-46.863158
1810,-25.407341,-10.059478,-46.863158
1811,-23.946209,-13.16454,-46.863158
1812,-22.107432,-16.06199,-46.863158
1813,-19.920007,-18.706132,-46.863158
1814,-17.418432,-21.055267,-46.863158
1815,-14.642158,-23.072349,-46.863158
1816,-11.634968,-24.725565,-46.863158
1817,-8.4442876,-25.988845,-46.863158
1818,-5.1204359,-26.842265,-46.863158
1819,-1.7158319,-27.272367,-46.863158
1820,1.7158319,-27.272367,-46.863158
1821,5.1204359,-26.842265,-46.863158
1822,8.4442876,-25.988845,-46.863158
1823,11.634968,-24.725565,-46.863158
1824,14.642158,-23.072349,-46.863158
1825,17.418432,-21.055267,-46.863158
1826,19.920007,-18.706132,-46.863158
1827,22.107432,-16.06199,-46.863158
1828,23.946209,-13.16454,-46.863158
1829,25.407341,-10.059478,-46.863158
1830,26.467783,-6.7957717,-46.863158
1831,27.110813,-3.4248921,-46.863158
1832,27.846296,3.5178053,-44.806153
1833,27.185822,6.9801327,-44.806153
1834,26.096611,10.332379,-44.806153
1835,24.595841,13.521678,-44.806153
1836,22.70718,16.497732,-44.806153
1837,20.460413,19.213607,-44.806153
1838,17.890973,21.626471,-44.806153
1839,15.039382,23.698273,-44.806153
1840,11.95061,25.39634,-44.806153
1841,8.6733709,26.693891,-44.806153
1842,5.2593471,27.570463,-44.806153
1843,1.7623803,28.012233,-44.806153
1844,-1.7623803,28.012233,-44.806153
1845,-5.2593471,27.570463,-44.806153
1846,-8.6733709,26.693891,-44.806153
1847,-11.95061,25.39634,-44.806153
1848,-15.039382,23.698273,-44.806153
1849,-17.890973,21.626471,-44.806153
1850,-20.460413,19.213607,-44.806153
1851,-22.70718,16.497732,-44.806153
1852,-24.595841,13.521678,-44.806153
1853,-26.096611,10.332379,-44.806153
1854,-27.185822,6.9801327,-44.806153
1855,-27.846296,3.5178053,-44.806153
1856,-28.067618,5.7731597e-15,-44.806153
1857,-27.846296,-3.5178053,-44.806153
1858,-27.185822,-6.9801327,-44.806153
1859,-26.096611,-10.332379,-44.806153
1860,-24.595841,-13.521678,-44.806153
1861,-22.70718,-16.497732,-44.806153
1862,-20.460413,-19.213607,-44.806153
1863,-17.890973,-21.626471,-44.806153
1864,-15.039382,-23.698273,-44.806153
1865,-11.95061,-25.39634,-44.806153
1866,-8.6733709,-26.693891,-44.806153
1867,-5.2593471,-27.570463,-44.806153
1868,-1.7623803,-28.012233,-44.806153
1869,1.7623803,-28.012233,-44.806153
1870,5.2593471,-27.570463,-44.806153
1871,8.6733709,-26.693891,-44.806153
1872,11.95061,-25.39634,-44.806153
1873,15.039382,-23.698273,-44.806153
1874,17.890973,-21.626471,-44.806153
1875,20.460413,-19.213607,-44.806153
1876,22.70718,-16.497732,-44.806153
1877,24.595841,-13.521678,-44.806153
1878,26.096611,-10.332379,-44.806153
1879,27.185822,-6.9801327,-44.806153
1880,27.846296,-3.5178053,-44.806153
1881,28.536208,3.6049614,-42.733163
1882,27.85937,7.1530703,-42.733163
1883,26.743173,10.588371,-42.733163
1884,25.20522,13.856687,-42.733163
1885,23.269766,16.906475,-42.733163
1886,20.967334,19.689637,-42.733163
1887,18.334234,22.162282,-42.733163
1888,15.411993,24.285415,-42.733163
1889,12.246695,26.025552,-42.733163
1890,8.8882597,27.35525,-42.733163
1891,5.3896511,28.253541,-42.733163
1892,1.8060445,28.706255,-42.733163
1893,-1.8060445,28.706255,-42.733163
1894,-5.3896511,28.253541,-42.733163
1895,-8.8882597,27.35525,-42.733163
1896,-12.246695,26.025552,-42.733163
1897,-15.411993,24.285415,-42.733163
1898,-18.334234,22.162282,-42.733163
1899,-20.967334,19.689637,-42.733163
1900,-23.269766,16.906475,-42.733163
1901,-25.20522,13.856687,-42.733163
1902,-26.743173,10.588371,-42.733163
1903,-27.85937,7.1530703,-42.733163
1904,-28.536208,3.6049614,-42.733163
1905,-28.763013,4.8849813e-15,-42.733163
1906,-28.536208,-3.6049614,-42.733163
1907,-27.85937,-7.1530703,-42.733163
1908,-26.743173,-10.588371,-42.733163
1909,-25.20522,-13.856687,-42.733163
1910,-23.269766,-16.906475,-42.733163
1911,-20.967334,-19.689637,-42.733163
1912,-18.334234,-22.162282,-42.733163
1913,-15.411993,-24.285415,-42.733163
1914,-12.246695,-26.025552,-42.733163
1915,-8.8882597,-27.35525,-42.733163
1916,-5.3896511,-28.253541,-42.733163
1917,-1.8060445,-28.706255,-42.733163
1918,1.8060445,-28.706255,-42.733163
1919,5.3896511,-28.253541,-42.733163
1920,8.8882597,-27.35525,-42.733163
1921,12.246695,-26.025552,-42.733163
1922,15.411993,-24.285415,-42.733163
1923,18.334234,-22.162282,-42.733163
1924,20.967334,-19.689637,-42.733163
1925,23.269766,-16.906475,-42.733163
1926,25.20522,-13.856687,-42.733163
1927,26.743173,-10.588371,-42.733163
1928,27.85937,-7.1530703,-42.733163
1929,28.536208,-3.6049614,-42.733163
1930,29.182525,3.6866103,-40.645944
1931,28.490357,7.3150805,-40.645944
1932,27.34888,10.828187,-40.645944
1933,25.776094,14.170528,-40.645944
1934,23.796804,17.28939,-40.645944
1935,21.442224,20.135588,-40.645944
1936,18.749487,22.664236,-40.645944
1937,15.76106,24.835456,-40.645944
1938,12.524071,26.615005,-40.645944
1939,9.0895702,27.97482,-40.645944
1940,5.5117215,28.893456,-40.645944
1941,1.8469497,29.356424,-40.645944
1942,-1.8469497,29.356424,-40.645944
1943,-5.5117215,28.893456,-40.645944
1944,-9.0895702,27.97482,-40.645944
1945,-12.524071,26.615005,-40.645944
1946,-15.76106,24.835456,-40.645944
1947,-18.749487,22.664236,-40.645944
1948,-21.442224,20.135588,-40.645944
1949,-23.796804,17.28939,-40.645944
1950,-25.776094,14.170528,-40.645944
1951,-27.34888,10.828187,-40.645944
1952,-28.490357,7.3150805,-40.645944
1953,-29.182525,3.6866103,-40.645944
1954,-29.414467,8.8817842e-16,-40.645944
1955,-29.182525,-3.6866103,-40.645944
1956,-28.490357,-7.3150805,-40.645944
1957,-27.34888,-10.828187,-40.645944
1958,-25.776094,-14.170528,-40.645944
1959,-23.796804,-17.28939,-40.645944
1960,-21.442224,-20.135588,-40.645944
1961,-18.749487,-22.664236,-40.645944
1962,-15.76106,-24.835456,-40.645944
1963,-12.524071,-26.615005,-40.645944
1964,-9.0895702,-27.97482,-40.645944
1965,-5.5117215,-28.893456,-40.645944
1966,-1.8469497,-29.356424,-40.645944
1967,1.8469497,-29.356424,-40.645944
1968,5.5117215,-28.893456,-40.645944
1969,9.0895702,-27.97482,-40.645944
1970,12.524071,-26.615005,-40.645944
1971,15.76106,-24.835456,-40.645944
1972,18.749487,-22.664236,-40.645944
1973,21.442224,-20.135588,-40.645944
1974,23.796804,-17.28939,-40.645944
1975,25.776094,-14.170528,-40.645944
1976,27.34888,-10.828187,-40.645944
1977,28.490357,-7.3150805,-40.645944
1978,29.182525,-3.6866103,-40.645944
1979,29.78702,3.7629757,-38.546028
1980,29.080515,7.4666071,-38.546028
1981,27.915392,11.052486,-38.546028
1982,26.310027,14.46406,-38.546028
1983,24.289737,17.647527,-38.546028
1984,21.886384,20.552682,-38.546028
1985,19.137869,23.13371,-38.546028
1986,16.087539,25.349904,-38.546028
1987,12.783498,27.166316,-38.546028
1988,9.2778541,28.554299,-38.546028
1989,5.6258928,29.491963,-38.546028
1990,1.8852079,29.964521,-38.546028
1991,-1.8852079,29.964521,-38.546028
1992,-5.6258928,29.491963,-38.546028
1993,-9.2778541,28.554299,-38.546028
1994,-12.783498,27.166316,-38.546028
1995,-16.087539,25.349904,-38.546028
1996,-19.137869,23.13371,-38.546028
1997,-21.886384,20.552682,-38.546028
1998,-24.289737,17.647527,-38.546028
1999,-26.310027,14.46406,-38.546028
2000,-27.915392,11.052486,-38.546028
2001,-29.080515,7.4666071,-38.546028
2002,-29.78702,3.7629757,-38.546028
2003,-30.023766,-6.2172489e-15,-38.546028
2004,-29.78702,-3.7629757,-38.546028
2005,-29.080515,-7.4666071,-38.546028
2006,-27.915392,-11.052486,-38.546028
2007,-26.310027,-14.46406,-38.546028
2008,-24.289737,-17.647527,-38.546028
2009,-21.886384,-20.552682,-38.546028
2010,-19.137869,-23.13371,-38.546028
2011,-16.087539,-25.349904,-38.546028
2012,-12.783498,-27.166316,-38.546028
2013,-9.2778541,-28.554299,-38.546028
2014,-5.6258928,-29.491963,-38.546028
2015,-1.8852079,-29.964521,-38.546028
2016,1.8852079,-29.964521,-38.546028
2017,5.6258928,-29.491963,-38.546028
2018,9.2778541,-28.554299,-38.546028
2019,12.783498,-27.166316,-38.546028
2020,16.087539,-25.349904,-38.546028
2021,19.137869,-23.13371,-38.546028
2022,21.886384,-20.552682,-38.546028
2023,24.289737,-17.647527,-38.546028
2024,26.310027,-14.46406,-38.546028
2025,27.915392,-11.052486,-38.546028
2026,29.080515,-7.4666071,-38.546028
2027,29.78702,-3.7629757,-38.546028
2028,30.351279,3.8342583,-36.434764
2029,29.631391,7.608048,-36.434764
2030,28.444197,11.261854,-36.434764
2031,26.808421,14.738054,-36.434764
2032,24.749861,17.981827,-36.434764
2033,22.30098,20.942015,-36.434764
2034,19.5004,23.571934,-36.434764
2035,16.392287,25.830111,-36.434764
2036,13.025657,27.680931,-36.434764
2037,9.4536056,29.095206,-36.434764
2038,5.7324648,30.050633,-36.434764
2039,1.9209196,30.532143,-36.434764
2040,-1.9209196,30.532143,-36.434764
2041,-5.7324648,30.050633,-36.434764
2042,-9.4536056,29.095206,-36.434764
2043,-13.025657,27.680931,-36.434764
2044,-16.392287,25.830111,-36.434764
2045,-19.5004,23.571934,-36.434764
2046,-22.30098,20.942015,-36.434764
2047,-24.749861,17.981827,-36.434764
2048,-26.808421,14.738054,-36.434764
2049,-28.444197,11.261854,-36.434764
2050,-29.631391,7.608048,-36.434764
2051,-30.351279,3.8342583,-36.434764
2052,-30.59251,1.3322676e-15,-36.434764
2053,-30.351279,-3.8342583,-36.434764
2054,-29.631391,-7.608048,-36.434764
2055,-28.444197,-11.261854,-36.434764
2056,-26.808421,-14.738054,-36.434764
2057,-24.749861,-17.981827,-36.434764
2058,-22.30098,-20.942015,-36.434764
2059,-19.5004,-23.571934,-36.434764
2060,-16.392287,-25.830111,-36.434764
2061,-13.025657,-27.680931,-36.434764
2062,-9.4536056,-29.095206,-36.434764
2063,-5.7324648,-30.050633,-36.434764
2064,-1.9209196,-30.532143,-36.434764
2065,1.9209196,-30.532143,-36.434764
2066,5.7324648,-30.050633,-36.434764
2067,9.4536056,-29.095206,-36.434764
2068,13.025657,-27.680931,-36.434764
2069,16.392287,-25.830111,-36.434764
2070,19.5004,-23.571934,-36.434764
2071,22.30098,-20.942015,-36.434764
2072,24.749861,-17.981827,-36.434764
2073,26.808421,-14.738054,-36.434764
2074,28.444197,-11.261854,-36.434764
2075,29.631391,-7.608048,-36.434764
2076,30.351279,-3.8342583,-36.434764
2077,30.876726,3.9006376,-34.313346
2078,30.144374,7.7397598,-34.313346
2079,28.936628,11.456821,-34.313346
2080,27.272533,14.993202,-34.313346
2081,25.178335,18.293131,-34.313346
2082,22.687059,21.304566,-34.313346
2083,19.837994,23.980016,-34.313346
2084,16.676073,26.277286,-34.313346
2085,13.25116,28.160148,-34.313346
2086,9.617268,29.598908,-34.313346
2087,5.8317062,30.570875,-34.313346
2088,1.9541749,31.060721,-34.313346
2089,-1.9541749,31.060721,-34.313346
2090,-5.8317062,30.570875,-34.313346
2091,-9.617268,29.598908,-34.313346
2092,-13.25116,28.160148,-34.313346
2093,-16.676073,26.277286,-34.313346
2094,-19.837994,23.980016,-34.313346
2095,-22.687059,21.304566,-34.313346
2096,-25.178335,18.293131,-34.313346
2097,-27.272533,14.993202,-34.313346
2098,-28.936628,11.456821,-34.313346
2099,-30.144374,7.7397598,-34.313346
2100,-30.876726,3.9006376,-34.313346
2101,-31.122133,0.0,-34.313346
2102,-30.876726,-3.9006376,-34.313346
2103,-30.144374,-7.7397598,-34.313346
2104,-28.936628,-11.456821,-34.313346
2105,-27.272533,-14.993202,-34.313346
2106,-25.178335,-18.293131,-34.313346
2107,-22.687059,-21.304566,-34.313346
2108,-19.837994,-23.980016,-34.313346
2109,-16.676073,-26.277286,-34.313346
2110,-13.25116,-28.160148,-34.313346
2111,-9.617268,-29.598908,-34.313346
2112,-5.8317062,-30.570875,-34.313346
2113,-1.9541749,-31.060721,-34.313346
2114,1.9541749,-31.060721,-34.313346
2115,5.8317062,-30.570875,-34.313346
2116,9.617268,-29.598908,-34.313346
2117,13.25116,-28.160148,-34.313346
2118,16.676073,-26.277286,-34.313346
2119,19.837994,-23.980016,-34.313346
2120,22.687059,-21.304566,-34.313346
2121,25.178335,-18.293131,-34.313346
2122,27.272533,-14.993202,-34.313346
2123,28.936628,-11.456821,-34.313346
2124,30.144374,-7.7397598,-34.313346
2125,30.876726,-3.9006376,-34.313346
2126,31.364634,3.9622748,-32.182836
2127,30.62071,7.8620621,-32.182836
2128,29.393879,11.63786,-32.182836
2129,27.703489,15.230122,-32.182836
2130,25.576198,18.582196,-32.182836
2131,23.045556,21.641217,-32.182836
2132,20.151471,24.358944,-32.182836
2133,16.939585,26.692515,-32.182836
2134,13.460552,28.60513,-32.182836
2135,9.7692384,30.066624,-32.182836
2136,5.9238578,31.05395,-32.182836
2137,1.9850544,31.551537,-32.182836
2138,-1.9850544,31.551537,-32.182836
2139,-5.9238578,31.05395,-32.182836
2140,-9.7692384,30.066624,-32.182836
2141,-13.460552,28.60513,-32.182836
2142,-16.939585,26.692515,-32.182836
2143,-20.151471,24.358944,-32.182836
2144,-23.045556,21.641217,-32.182836
2145,-25.576198,18.582196,-32.182836
2146,-27.703489,15.230122,-32.182836
2147,-29.393879,11.63786,-32.182836
2148,-30.62071,7.8620621,-32.182836
2149,-31.364634,3.9622748,-32.182836
2150,-31.61392,0.0,-32.182836
2151,-31.364634,-3.9622748,-32.182836
2152,-30.62071,-7.8620621,-32.182836
2153,-29.393879,-11.63786,-32.182836
2154,-27.703489,-15.230122,-32.182836
2155,-25.576198,-18.582196,-32.182836
2156,-23.045556,-21.641217,-32.182836
2157,-20.151471,-24.358944,-32.182836
2158,-16.939585,-26.692515,-32.182836
2159,-13.460552,-28.60513,-32.182836
2160,-9.7692384,-30.066624,-32.182836
2161,-5.9238578,-31.05395,-32.182836
2162,-1.9850544,-31.551537,-32.182836
2163,1.9850544,-31.551537,-32.182836
2164,5.9238578,-31.05395,-32.182836
2165,9.7692384,-30.066624,-32.182836
2166,13.460552,-28.60513,-32.182836
2167,16.939585,-26.692515,-32.182836
2168,20.151471,-24.358944,-32.182836
2169,23.045556,-21.641217,-32.182836
2170,25.576198,-18.582196,-32.182836
2171,27.703489,-15.230122,-32.182836
2172,29.393879,-11.63786,-32.182836
2173,30.62071,-7.8620621,-32.182836
2174,31.364634,-3.9622748,-32.182836
2175,31.816148,4.0193142,-30.044188
2176,31.061514,7.9752414,-30.044188
2177,29.817022,11.805394,-30.044188
2178,28.102298,15.449369,-30.044188
2179,25.944384,18.849698,-30.044188
2180,23.377311,21.952756,-30.044188
2181,20.441564,24.709606,-30.044188
2182,17.183441,27.076771,-30.044188
2183,13.654325,29.016918,-30.044188
2184,9.9098727,30.499452,-30.044188
2185,6.0091355,31.500991,-30.044188
2186,2.0136305,32.005741,-30.044188
2187,-2.0136305,32.005741,-30.044188
2188,-6.0091355,31.500991,-30.044188
2189,-9.9098727,30.499452,-30.044188
2190,-13.654325,29.016918,-30.044188
2191,-17.183441,27.076771,-30.044188
2192,-20.441564,24.709606,-30.044188
2193,-23.377311,21.952756,-30.044188
2194,-25.944384,18.849698,-30.044188
2195,-28.102298,15.449369,-30.044188
2196,-29.817022,11.805394,-30.044188
2197,-31.061514,7.9752414,-30.044188
2198,-31.816148,4.0193142,-30.044188
2199,-32.069022,-8.437695e-15,-30.044188
2200,-31.816148,-4.0193142,-30.044188
2201,-31.061514,-7.9752414,-30.044188
2202,-29.817022,-11.805394,-30.044188
2203,-28.102298,-15.449369,-30.044188
2204,-25.944384,-18.849698,-30.044188
2205,-23.377311,-21.952756,-30.044188
2206,-20.441564,-24.709606,-30.044188
2207,-17.183441,-27.076771,-30.044188
2208,-13.654325,-29.016918,-30.044188
2209,-9.9098727,-30.499452,-30.044188
2210,-6.0091355,-31.500991,-30.044188
2211,-2.0136305,-32.005741,-30.044188
2212,2.0136305,-32.005741,-30.044188
2213,6.0091355,-31.500991,-30.044188
2214,9.9098727,-30.499452,-30.044188
2215,13.654325,-29.016918,-30.044188
2216,17.183441,-27.076771,-30.044188
2217,20.441564,-24.709606,-30.044188
2218,23.377311,-21.952756,-30.044188
2219,25.944384,-18.849698,-30.044188
2220,28.102298,-15.449369,-30.044188
2221,29.817022,-11.805394,-30.044188
2222,31.061514,-7.9752414,-30.044188
2223,31.816148,-4.0193142,-30.044188
2224,32.232289,4.071885,-27.898261
2225,31.467785,8.079554,-27.898261
2226,30.207016,11.959804,-27.898261
2227,28.469864,15.65144,-27.898261
2228,26.283725,19.096244,-27.898261
2229,23.683076,22.239888,-27.898261
2230,20.70893,25.032797,-27.898261
2231,17.408193,27.430923,-27.898261
2232,13.832918,29.396447,-27.898261
2233,10.039489,30.898371,-27.898261
2234,6.0877323,31.91301,-27.898261
2235,2.0399679,32.424362,-27.898261
2236,-2.0399679,32.424362,-27.898261
2237,-6.0877323,31.91301,-27.898261
2238,-10.039489,30.898371,-27.898261
2239,-13.832918,29.396447,-27.898261
2240,-17.408193,27.430923,-27.898261
2241,-20.70893,25.032797,-27.898261
2242,-23.683076,22.239888,-27.898261
2243,-26.283725,19.096244,-27.898261
2244,-28.469864,15.65144,-27.898261
2245,-30.207016,11.959804,-27.898261
2246,-31.467785,8.079554,-27.898261
2247,-32.232289,4.071885,-27.898261
2248,-32.48847,2.6645353e-15,-27.898261
2249,-32.232289,-4.071885,-27.898261
2250,-31.467785,-8.079554,-27.898261
2251,-30.207016,-11.959804,-27.898261
2252,-28.469864,-15.65144,-27.898261
2253,-26.283725,-19.096244,-27.898261
2254,-23.683076,-22.239888,-27.898261
2255,-20.70893,-25.032797,-27.898261
2256,-17.408193,-27.430923,-27.898261
2257,-13.832918,-29.396447,-27.898261
2258,-10.039489,-30.898371,-27.898261
2259,-6.0877323,-31.91301,-27.898261
2260,-2.0399679,-32.424362,-27.898261
2261,2.0399679,-32.424362,-27.898261
2262,6.0877323,-31.91301,-27.898261
2263,10.039489,-30.898371,-27.898261
2264,13.832918,-29.396447,-27.898261
2265,17.408193,-27.430923,-27.898261
2266,20.70893,-25.032797,-27.898261
2267,23.683076,-22.239888,-27.898261
2268,26.283725,-19.096244,-27.898261
2269,28.469864,-15.65144,-27.898261
2270,30.207016,-11.959804,-27.898261
2271,31.467785,-8.079554,-27.898261
2272,32.232289,-4.071885,-27.898261
2273,32.613972,4.1201028,-25.745835
2274,31.840415,8.1752291,-25.745835
2275,30.564716,12.101427,-25.745835
2276,28.806993,15.836779,-25.745835
2277,26.594967,19.322374,-25.745835
2278,23.963522,22.503245,-25.745835
2279,20.954158,25.329226,-25.745835
2280,17.614334,27.75575,-25.745835
2281,13.996722,29.744549,-25.745835
2282,10.158373,31.264259,-25.745835
2283,6.159821,32.290912,-25.745835
2284,2.0641245,32.808319,-25.745835
2285,-2.0641245,32.808319,-25.745835
2286,-6.159821,32.290912,-25.745835
2287,-10.158373,31.264259,-25.745835
2288,-13.996722,29.744549,-25.745835
2289,-17.614334,27.75575,-25.745835
2290,-20.954158,25.329226,-25.745835
2291,-23.963522,22.503245,-25.745835
2292,-26.594967,19.322374,-25.745835
2293,-28.806993,15.836779,-25.745835
2294,-30.564716,12.101427,-25.745835
2295,-31.840415,8.1752291,-25.745835
2296,-32.613972,4.1201028,-25.745835
2297,-32.873187,-2.6645353e-15,-25.745835
2298,-32.613972,-4.1201028,-25.745835
2299,-31.840415,-8.1752291,-25.745835
2300,-30.564716,-12.101427,-25.745835
2301,-28.806993,-15.836779,-25.745835
2302,-26.594967,-19.322374,-25.745835
2303,-23.963522,-22.503245,-25.745835
2304,-20.954158,-25.329226,-25.745835
2305,-17.614334,-27.75575,-25.745835
2306,-13.996722,-29.744549,-25.745835
2307,-10.158373,-31.264259,-25.745835
2308,-6.159821,-32.290912,-25.745835
2309,-2.0641245,-32.808319,-25.745835
2310,2.0641245,-32.808319,-25.745835
2311,6.159821,-32.290912,-25.745835
2312,10.158373,-31.264259,-25.745835
2313,13.996722,-29.744549,-25.745835
2314,17.614334,-27.75575,-25.745835
2315,20.954158,-25.329226,-25.745835
2316,23.963522,-22.503245,-25.745835
2317,26.594967,-19.322374,-25.745835
2318,28.806993,-15.836779,-25.745835
2319,30.564716,-12.101427,-25.745835
2320,31.840415,-8.1752291,-25.745835
2321,32.613972,-4.1201028,-25.745835
2322,32.962011,4.1640704,-23.587621
2323,32.1802,8.262471,-23.587621
2324,30.890887,12.230567,-23.587621
2325,29.114407,16.00578,-23.587621
2326,26.878775,19.528573,-23.587621
2327,24.219248,22.743388,-23.587621
2328,21.17777,25.599526,-23.587621
2329,17.802305,28.051945,-23.587621
2330,14.146088,30.061967,-23.587621
2331,10.266778,31.597895,-23.587621
2332,6.2255554,32.635504,-23.587621
2333,2.0861518,33.158433,-23.587621
2334,-2.0861518,33.158433,-23.587621
2335,-6.2255554,32.635504,-23.587621
2336,-10.266778,31.597895,-23.587621
2337,-14.146088,30.061967,-23.587621
2338,-17.802305,28.051945,-23.587621
2339,-21.17777,25.599526,-23.587621
2340,-24.219248,22.743388,-23.587621
2341,-26.878775,19.528573,-23.587621
2342,-29.114407,16.00578,-23.587621
2343,-30.890887,12.230567,-23.587621
2344,-32.1802,8.262471,-23.587621
2345,-32.962011,4.1640704,-23.587621
2346,-33.223993,0.0,-23.587621
2347,-32.962011,-4.1640704,-23.587621
2348,-32.1802,-8.262471,-23.587621
2349,-30.890887,-12.230567,-23.587621
2350,-29.114407,-16.00578,-23.587621
2351,-26.878775,-19.528573,-23.587621
2352,-24.219248,-22.743388,-23.587621
2353,-21.17777,-25.599526,-23.587621
2354,-17.802305,-28.051945,-23.587621
2355,-14.146088,-30.061967,-23.587621
2356,-10.266778,-31.597895,-23.587621
2357,-6.2255554,-32.635504,-23.587621
2358,-2.0861518,-33.158433,-23.587621
2359,2.0861518,-33.158433,-23.587621
2360,6.2255554,-32.635504,-23.587621
2361,10.266778,-31.597895,-23.587621
2362,14.146088,-30.061967,-23.587621
2363,17.802305,-28.051945,-23.587621
2364,21.17777,-25.599526,-23.587621
2365,24.219248,-22.743388,-23.587621
2366,26.878775,-19.528573,-23.587621
2367,29.114407,-16.00578,-23.587621
2368,30.890887,-12.230567,-23.587621
2369,32.1802,-8.262471,-23.587621
2370,32.962011,-4.1640704,-23.587621
2371,33.277132,4.2038793,-21.424275
2372,32.487846,8.341461,-21.424275
2373,31.186207,12.347493,-21.424275
2374,29.392743,16.158797,-21.424275
2375,27.135738,19.715268,-21.424275
2376,24.450787,22.960817,-21.424275
2377,21.380231,25.84426,-21.424275
2378,17.972497,28.320124,-21.424275
2379,14.281326,30.349363,-21.424275
2380,10.36493,31.899974,-21.424275
2381,6.2850723,32.947503,-21.424275
2382,2.1060956,33.475431,-21.424275
2383,-2.1060956,33.475431,-21.424275
2384,-6.2850723,32.947503,-21.424275
2385,-10.36493,31.899974,-21.424275
2386,-14.281326,30.349363,-21.424275
2387,-17.972497,28.320124,-21.424275
2388,-21.380231,25.84426,-21.424275
2389,-24.450787,22.960817,-21.424275
2390,-27.135738,19.715268,-21.424275
2391,-29.392743,16.158797,-21.424275
2392,-31.186207,12.347493,-21.424275
2393,-32.487846,8.341461,-21.424275
2394,-33.277132,4.2038793,-21.424275
2395,-33.541617,-2.6645353e-15,-21.424275
2396,-33.277132,-4.2038793,-21.424275
2397,-32.487846,-8.341461,-21.424275
2398,-31.186207,-12.347493,-21.424275
2399,-29.392743,-16.158797,-21.424275
2400,-27.135738,-19.715268,-21.424275
2401,-24.450787,-22.960817,-21.424275
2402,-21.380231,-25.84426,-21.424275
2403,-17.972497,-28.320124,-21.424275
2404,-14.281326,-30.349363,-21.424275
2405,-10.36493,-31.899974,-21.424275
2406,-6.2850723,-32.947503,-21.424275
2407,-2.1060956,-33.475431,-21.424275
2408,2.1060956,-33.475431,-21.424275
2409,6.2850723,-32.947503,-21.424275
2410,10.36493,-31.899974,-21.424275
2411,14.281326,-30.349363,-21.424275
2412,17.972497,-28.320124,-21.424275
2413,21.380231,-25.84426,-21.424275
2414,24.450787,-22.960817,-21.424275
2415,27.135738,-19.715268,-21.424275
2416,29.392743,-16.158797,-21.424275
2417,31.186207,-12.347493,-21.424275
2418,32.487846,-8.341461,-21.424275
2419,33.277132,-4.2038793,-21.424275
2420,33.559972,4.2396105,-19.256399
2421,32.763978,8.4123597,-19.256399
2422,31.451276,12.452441,-19.256399
2423,29.642569,16.29614,-19.256399
2424,27.36638,19.882839,-19.256399
2425,24.658608,23.155974,-19.256399
2426,21.561954,26.063925,-19.256399
2427,18.125256,28.560833,-19.256399
2428,14.402711,30.607319,-19.256399
2429,10.453027,32.171109,-19.256399
2430,6.3384927,33.227542,-19.256399
2431,2.1239965,33.759957,-19.256399
2432,-2.1239965,33.759957,-19.256399
2433,-6.3384927,33.227542,-19.256399
2434,-10.453027,32.171109,-19.256399
2435,-14.402711,30.607319,-19.256399
2436,-18.125256,28.560833,-19.256399
2437,-21.561954,26.063925,-19.256399
2438,-24.658608,23.155974,-19.256399
2439,-27.36638,19.882839,-19.256399
2440,-29.642569,16.29614,-19.256399
2441,-31.451276,12.452441,-19.256399
2442,-32.763978,8.4123597,-19.256399
2443,-33.559972,4.2396105,-19.256399
2444,-33.826706,0.0,-19.256399
2445,-33.559972,-4.2396105,-19.256399
2446,-32.763978,-8.4123597,-19.256399
2447,-31.451276,-12.452441,-19.256399
2448,-29.642569,-16.29614,-19.256399
2449,-27.36638,-19.882839,-19.256399
2450,-24.658608,-23.155974,-19.256399
2451,-21.561954,-26.063925,-19.256399
2452,-18.125256,-28.560833,-19.256399
2453,-14.402711,-30.607319,-19.256399
2454,-10.453027,-32.171109,-19.256399
2455,-6.3384927,-33.227542,-19.256399
2456,-2.1239965,-33.759957,-19.256399
2457,2.1239965,-33.759957,-19.256399
2458,6.3384927,-33.227542,-19.256399
2459,10.453027,-32.171109,-19.256399
2460,14.402711,-30.607319,-19.256399
2461,18.125256,-28.560833,-19.256399
2462,21.561954,-26.063925,-19.256399
2463,24.658608,-23.155974,-19.256399
2464,27.36638,-19.882839,-19.256399
2465,29.642569,-16.29614,-19.256399
2466,31.451276,-12.452441,-19.256399
2467,32.763978,-8.4123597,-19.256399
2468,33.559972,-4.2396105,-19.256399
2469,33.811096,4.2713348,-17.084559
2470,33.009146,8.4753081,-17.084559
2471,31.686621,12.545621,-17.084559
2472,29.864379,16.418081,-17.084559
2473,27.571158,20.031619,-17.084559
2474,24.843124,23.329246,-17.084559
2475,21.723299,26.258957,-17.084559
2476,18.260884,28.774549,-17.084559
2477,14.510484,30.836349,-17.084559
2478,10.531245,32.411841,-17.084559
2479,6.3859226,33.476179,-17.084559
2480,2.13989,34.012577,-17.084559
2481,-2.13989,34.012577,-17.084559
2482,-6.3859226,33.476179,-17.084559
2483,-10.531245,32.411841,-17.084559
2484,-14.510484,30.836349,-17.084559
2485,-18.260884,28.774549,-17.084559
2486,-21.723299,26.258957,-17.084559
2487,-24.843124,23.329246,-17.084559
2488,-27.571158,20.031619,-17.084559
2489,-29.864379,16.418081,-17.084559
2490,-31.686621,12.545621,-17.084559
2491,-33.009146,8.4753081,-17.084559
2492,-33.811096,4.2713348,-17.084559
2493,-34.079826,1.7763568e-15,-17.084559
2494,-33.811096,-4.2713348,-17.084559
2495,-33.009146,-8.4753081,-17.084559
2496,-31.686621,-12.545621,-17.084559
2497,-29.864379,-16.418081,-17.084559
2498,-27.571158,-20.031619,-17.084559
2499,-24.843124,-23.329246,-17.084559
2500,-21.723299,-26.258957,-17.084559
2501,-18.260884,-28.774549,-17.084559
2502,-14.510484,-30.836349,-17.084559
2503,-10.531245,-32.411841,-17.084559
2504,-6.3859226,-33.476179,-17.084559
2505,-2.13989,-34.012577,-17.084559
2506,2.13989,-34.012577,-17.084559
2507,6.3859226,-33.476179,-17.084559
2508,10.531245,-32.411841,-17.084559
2509,14.510484,-30.836349,-17.084559
2510,18.260884,-28.774549,-17.084559
2511,21.723299,-26.258957,-17.084559
2512,24.843124,-23.329246,-17.084559
2513,27.571158,-20.031619,-17.084559
2514,29.864379,-16.418081,-17.084559
2515,31.686621,-12.545621,-17.084559
2516,33.009146,-8.4753081,-17.084559
2517,33.811096,-4.2713348,-17.084559
2518,34.030994,4.2991143,-14.90928
2519,33.223827,8.5304289,-14.90928
2520,31.892701,12.627214,-14.90928
2521,30.058608,16.52486,-14.90928
2522,27.750473,20.161899,-14.90928
2523,25.004696,23.480973,-14.90928
2524,21.86458,26.429738,-14.90928
2525,18.379647,28.96169,-14.90928
2526,14.604856,31.036899,-14.90928
2527,10.599737,32.622637,-14.90928
2528,6.4274547,33.693898,-14.90928
2529,2.1538072,34.233785,-14.90928
2530,-2.1538072,34.233785,-14.90928
2531,-6.4274547,33.693898,-14.90928
2532,-10.599737,32.622637,-14.90928
2533,-14.604856,31.036899,-14.90928
2534,-18.379647,28.96169,-14.90928
2535,-21.86458,26.429738,-14.90928
2536,-25.004696,23.480973,-14.90928
2537,-27.750473,20.161899,-14.90928
2538,-30.058608,16.52486,-14.90928
2539,-31.892701,12.627214,-14.90928
2540,-33.223827,8.5304289,-14.90928
2541,-34.030994,4.2991143,-14.90928
2542,-34.301471,-8.8817842e-16,-14.90928
2543,-34.030994,-4.2991143,-14.90928
2544,-33.223827,-8.5304289,-14.90928
2545,-31.892701,-12.627214,-14.90928
2546,-30.058608,-16.52486,-14.90928
2547,-27.750473,-20.161899,-14.90928
2548,-25.004696,-23.480973,-14.90928
2549,-21.86458,-26.429738,-14.90928
2550,-18.379647,-28.96169,-14.90928
2551,-14.604856,-31.036899,-14.90928
2552,-10.599737,-32.622637,-14.90928
2553,-6.4274547,-33.693898,-14.90928
2554,-2.1538072,-34.233785,-14.90928
2555,2.1538072,-34.233785,-14.90928
2556,6.4274547,-33.693898,-14.90928
2557,10.599737,-32.622637,-14.90928
2558,14.604856,-31.036899,-14.90928
2559,18.379647,-28.96169,-14.90928
2560,21.86458,-26.429738,-14.90928
2561,25.004696,-23.480973,-14.90928
2562,27.750473,-20.161899,-14.90928
2563,30.058608,-16.52486,-14.90928
2564,31.892701,-12.627214,-14.90928
2565,33.223827,-8.5304289,-14.90928
2566,34.030994,-4.2991143,-14.90928
2567,34.220085,4.3230021,-12.73106
2568,33.408434,8.5778279,-12.73106
2569,32.069912,12.697376,-12.73106
2570,30.225628,16.616679,-12.73106
2571,27.904667,20.273928,-12.73106
2572,25.143634,23.611444,-12.73106
2573,21.98607,26.576593,-12.73106
2574,18.481773,29.122614,-12.73106
2575,14.686007,31.209354,-12.73106
2576,10.658634,32.803904,-12.73106
2577,6.4631686,33.881116,-12.73106
2578,2.1657747,34.424003,-12.73106
2579,-2.1657747,34.424003,-12.73106
2580,-6.4631686,33.881116,-12.73106
2581,-10.658634,32.803904,-12.73106
2582,-14.686007,31.209354,-12.73106
2583,-18.481773,29.122614,-12.73106
2584,-21.98607,26.576593,-12.73106
2585,-25.143634,23.611444,-12.73106
2586,-27.904667,20.273928,-12.73106
2587,-30.225628,16.616679,-12.73106
2588,-32.069912,12.697376,-12.73106
2589,-33.408434,8.5778279,-12.73106
2590,-34.220085,4.3230021,-12.73106
2591,-34.492066,-4.4408921e-15,-12.73106
2592,-34.220085,-4.3230021,-12.73106
2593,-33.408434,-8.5778279,-12.73106
2594,-32.069912,-12.697376,-12.73106
2595,-30.225628,-16.616679,-12.73106
2596,-27.904667,-20.273928,-12.73106
2597,-25.143634,-23.611444,-12.73106
2598,-21.98607,-26.576593,-12.73106
2599,-18.481773,-29.122614,-12.73106
2600,-14.686007,-31.209354,-12.73106
2601,-10.658634,-32.803904,-12.73106
2602,-6.4631686,-33.881116,-12.73106
2603,-2.1657747,-34.424003,-12.73106
2604,2.1657747,-34.424003,-12.73106
2605,6.4631686,-33.881116,-12.73106
2606,10.658634,-32.803904,-12.73106
2607,14.686007,-31.209354,-12.73106
2608,18.481773,-29.122614,-12.73106
2609,21.98607,-26.576593,-12.73106
2610,25.143634,-23.611444,-12.73106
2611,27.904667,-20.273928,-12.73106
2612,30.225628,-16.616679,-12.73106
2613,32.069912,-12.697376,-12.73106
2614,33.408434,-8.5778279,-12.73106
2615,34.220085,-4.3230021,-12.73106
2616,34.37873,4.3430435,-10.550373
2617,33.563315,8.6175947,-10.550373
2618,32.218588,12.756241,-10.550373
2619,30.365753,16.693714,-10.550373
2620,28.034033,20.367917,-10.550373
2621,25.2602,23.720906,-10.550373
2622,22.087997,26.699802,-10.550373
2623,18.567454,29.257627,-10.550373
2624,14.754092,31.354041,-10.550373
2625,10.708048,32.955983,-10.550373
2626,6.4931318,34.038189,-10.550373
2627,2.1758152,34.583593,-10.550373
2628,-2.1758152,34.583593,-10.550373
2629,-6.4931318,34.038189,-10.550373
2630,-10.708048,32.955983,-10.550373
2631,-14.754092,31.354041,-10.550373
2632,-18.567454,29.257627,-10.550373
2633,-22.087997,26.699802,-10.550373
2634,-25.2602,23.720906,-10.550373
2635,-28.034033,20.367917,-10.550373
2636,-30.365753,16.693714,-10.550373
2637,-32.218588,12.756241,-10.550373
2638,-33.563315,8.6175947,-10.550373
2639,-34.37873,4.3430435,-10.550373
2640,-34.651971,-1.7763568e-15,-10.550373
2641,-34.37873,-4.3430435,-10.550373
2642,-33.563315,-8.6175947,-10.550373
2643,-32.218588,-12.756241,-10.550373
2644,-30.365753,-16.693714,-10.550373
2645,-28.034033,-20.367917,-10.550373
2646,-25.2602,-23.720906,-10.550373
2647,-22.087997,-26.699802,-10.550373
2648,-18.567454,-29.257627,-10.550373
2649,-14.754092,-31.354041,-10.550373
2650,-10.708048,-32.955983,-10.550373
2651,-6.4931318,-34.038189,-10.550373
2652,-2.1758152,-34.583593,-10.550373
2653,2.1758152,-34.583593,-10.550373
2654,6.4931318,-34.038189,-10.550373
2655,10.708048,-32.955983,-10.550373
2656,14.754092,-31.354041,-10.550373
2657,18.567454,-29.257627,-10.550373
2658,22.087997,-26.699802,-10.550373
2659,25.2602,-23.720906,-10.550373
2660,28.034033,-20.367917,-10.550373
2661,30.365753,-16.693714,-10.550373
2662,32.218588,-12.756241,-10.550373
2663,33.563315,-8.6175947,-10.550373
2664,34.37873,-4.3430435,-10.550373
2665,34.507222,4.3592759,-8.3676687
2666,33.68876,8.6498034,-8.3676687
2667,32.339006,12.803918,-8.3676687
2668,30.479247,16.756108,-8.3676687
2669,28.138812,20.444044,-8.3676687
2670,25.354611,23.809565,-8.3676687
2671,22.170553,26.799594,-8.3676687
2672,18.636851,29.366979,-8.3676687
2673,14.809236,31.471228,-8.3676687
2674,10.74807,33.079157,-8.3676687
2675,6.5174003,34.165409,-8.3676687
2676,2.1839475,34.712851,-8.3676687
2677,-2.1839475,34.712851,-8.3676687
2678,-6.5174003,34.165409,-8.3676687
2679,-10.74807,33.079157,-8.3676687
2680,-14.809236,31.471228,-8.3676687
2681,-18.636851,29.366979,-8.3676687
2682,-22.170553,26.799594,-8.3676687
2683,-25.354611,23.809565,-8.3676687
2684,-28.138812,20.444044,-8.3676687
2685,-30.479247,16.756108,-8.3676687
2686,-32.339006,12.803918,-8.3676687
2687,-33.68876,8.6498034,-8.3676687
2688,-34.507222,4.3592759,-8.3676687
2689,-34.781484,1.0658141e-14,-8.3676687
2690,-34.507222,-4.3592759,-8.3676687
2691,-33.68876,-8.6498034,-8.3676687
2692,-32.339006,-12.803918,-8.3676687
2693,-30.479247,-16.756108,-8.3676687
2694,-28.138812,-20.444044,-8.3676687
2695,-25.354611,-23.809565,-8.3676687
2696,-22.170553,-26.799594,-8.3676687
2697,-18.636851,-29.366979,-8.3676687
2698,-14.809236,-31.471228,-8.3676687
2699,-10.74807,-33.079157,-8.3676687
2700,-6.5174003,-34.165409,-8.3676687
2701,-2.1839475,-34.712851,-8.3676687
2702,2.1839475,-34.712851,-8.3676687
2703,6.5174003,-34.165409,-8.3676687
2704,10.74807,-33.079157,-8.3676687
2705,14.809236,-31.471228,-8.3676687
2706,18.636851,-29.366979,-8.3676687
2707,22.170553,-26.799594,-8.3676687
2708,25.354611,-23.809565,-8.3676687
2709,28.138812,-20.444044,-8.3676687
2710,30.479247,-16.756108,-8.3676687
2711,32.339006,-12.803918,-8.3676687
2712,33.68876,-8.6498034,-8.3676687
2713,34.507222,-4.3592759,-8.3676687
2714,34.6058,4.3717292,-6.1833842
2715,33.785,8.6745137,-6.1833842
2716,32.431391,12.840496,-6.1833842
2717,30.566319,16.803976,-6.1833842
2718,28.219197,20.502447,-6.1833842
2719,25.427043,23.877582,-6.1833842
2720,22.233888,26.876154,-6.1833842
2721,18.690092,29.450873,-6.1833842
2722,14.851542,31.561133,-6.1833842
2723,10.778774,33.173656,-6.1833842
2724,6.5360188,34.263011,-6.1833842
2725,2.1901865,34.812017,-6.1833842
2726,-2.1901865,34.812017,-6.1833842
2727,-6.5360188,34.263011,-6.1833842
2728,-10.778774,33.173656,-6.1833842
2729,-14.851542,31.561133,-6.1833842
2730,-18.690092,29.450873,-6.1833842
2731,-22.233888,26.876154,-6.1833842
2732,-25.427043,23.877582,-6.1833842
2733,-28.219197,20.502447,-6.1833842
2734,-30.566319,16.803976,-6.1833842
2735,-32.431391,12.840496,-6.1833842
2736,-33.785,8.6745137,-6.1833842
2737,-34.6058,4.3717292,-6.1833842
2738,-34.880846,-4.4408921e-15,-6.1833842
2739,-34.6058,-4.3717292,-6.1833842
2740,-33.785,-8.6745137,-6.1833842
2741,-32.431391,-12.840496,-6.1833842
2742,-30.566319,-16.803976,-6.1833842
2743,-28.219197,-20.502447,-6.1833842
2744,-25.427043,-23.877582,-6.1833842
2745,-22.233888,-26.876154,-6.1833842
2746,-18.690092,-29.450873,-6.1833842
2747,-14.851542,-31.561133,-6.1833842
2748,-10.778774,-33.173656,-6.1833842
2749,-6.5360188,-34.263011,-6.1833842
2750,-2.1901865,-34.812017,-6.1833842
2751,2.1901865,-34.812017,-6.1833842
2752,6.5360188,-34.263011,-6.1833842
2753,10.778774,-33.173656,-6.1833842
2754,14.851542,-31.561133,-6.1833842
2755,18.690092,-29.450873,-6.1833842
2756,22.233888,-26.876154,-6.1833842
2757,25.427043,-23.877582,-6.1833842
2758,28.219197,-20.502447,-6.1833842
2759,30.566319,-16.803976,-6.1833842
2760,32.431391,-12.840496,-6.1833842
2761,33.785,-8.6745137,-6.1833842
2762,34.6058,-4.3717292,-6.1833842
2763,34.674645,4.3804263,-3.9979422
2764,33.852212,8.6917708,-3.9979422
2765,32.49591,12.866041,-3.9979422
2766,30.627127,16.837406,-3.9979422
2767,28.275337,20.543234,-3.9979422
2768,25.477627,23.925084,-3.9979422
2769,22.27812,26.929621,-3.9979422
2770,18.727274,29.509462,-3.9979422
2771,14.881088,31.623921,-3.9979422
2772,10.800218,33.239652,-3.9979422
2773,6.5490215,34.331173,-3.9979422
2774,2.1945436,34.881272,-3.9979422
2775,-2.1945436,34.881272,-3.9979422
2776,-6.5490215,34.331173,-3.9979422
2777,-10.800218,33.239652,-3.9979422
2778,-14.881088,31.623921,-3.9979422
2779,-18.727274,29.509462,-3.9979422
2780,-22.27812,26.929621,-3.9979422
2781,-25.477627,23.925084,-3.9979422
2782,-28.275337,20.543234,-3.9979422
2783,-30.627127,16.837406,-3.9979422
2784,-32.49591,12.866041,-3.9979422
2785,-33.852212,8.6917708,-3.9979422
2786,-34.674645,4.3804263,-3.9979422
2787,-34.950238,1.0658141e-14,-3.9979422
2788,-34.674645,-4.3804263,-3.9979422
2789,-33.852212,-8.6917708,-3.9979422
2790,-32.49591,-12.866041,-3.9979422
2791,-30.627127,-16.837406,-3.9979422
2792,-28.275337,-20.543234,-3.9979422
2793,-25.477627,-23.925084,-3.9979422
2794,-22.27812,-26.929621,-3.9979422
2795,-18.727274,-29.509462,-3.9979422
2796,-14.881088,-31.623921,-3.9979422
2797,-10.800218,-33.239652,-3.9979422
2798,-6.5490215,-34.331173,-3.9979422
2799,-2.1945436,-34.881272,-3.9979422
2800,2.1945436,-34.881272,-3.9979422
2801,6.5490215,-34.331173,-3.9979422
2802,10.800218,-33.239652,-3.9979422
2803,14.881088,-31.623921,-3.9979422
2804,18.727274,-29.509462,-3.9979422
2805,22.27812,-26.929621,-3.9979422
2806,25.477627,-23.925084,-3.9979422
2807,28.275337,-20.543234,-3.9979422
2808,30.627127,-16.837406,-3.9979422
2809,32.49591,-12.866041,-3.9979422
2810,33.852212,-8.6917708,-3.9979422
2811,34.674645,-4.3804263,-3.9979422
2812,34.713881,4.3853831,-1.8117563
2813,33.890518,8.701606,-1.8117563
2814,32.532681,12.880599,-1.8117563
2815,30.661784,16.856458,-1.8117563
2816,28.307332,20.56648,-1.8117563
2817,25.506457,23.952157,-1.8117563
2818,22.303329,26.960094,-1.8117563
2819,18.748465,29.542854,-1.8117563
2820,14.897926,31.659705,-1.8117563
2821,10.812439,33.277264,-1.8117563
2822,6.5564322,34.370021,-1.8117563
2823,2.1970269,34.920742,-1.8117563
2824,-2.1970269,34.920742,-1.8117563
2825,-6.5564322,34.370021,-1.8117563
2826,-10.812439,33.277264,-1.8117563
2827,-14.897926,31.659705,-1.8117563
2828,-18.748465,29.542854,-1.8117563
2829,-22.303329,26.960094,-1.8117563
2830,-25.506457,23.952157,-1.8117563
2831,-28.307332,20.56648,-1.8117563
2832,-30.661784,16.856458,-1.8117563
2833,-32.532681,12.880599,-1.8117563
2834,-33.890518,8.701606,-1.8117563
2835,-34.713881,4.3853831,-1.8117563
2836,-34.989786,-6.2172489e-15,-1.8117563
2837,-34.713881,-4.3853831,-1.8117563
2838,-33.890518,-8.701606,-1.8117563
2839,-32.532681,-12.880599,-1.8117563
2840,-30.661784,-16.856458,-1.8117563
2841,-28.307332,-20.56648,-1.8117563
2842,-25.506457,-23.952157,-1.8117563
2843,-22.303329,-26.960094,-1.8117563
2844,-18.748465,-29.542854,-1.8117563
2845,-14.897926,-31.659705,-1.8117563
2846,-10.812439,-33.277264,-1.8117563
2847,-6.5564322,-34.370021,-1.8117563
2848,-2.1970269,-34.920742,-1.8117563
2849,2.1970269,-34.920742,-1.8117563
2850,6.5564322,-34.370021,-1.8117563
2851,10.812439,-33.277264,-1.8117563
2852,14.897926,-31.659705,-1.8117563
2853,18.748465,-29.542854,-1.8117563
2854,22.303329,-26.960094,-1.8117563
2855,25.506457,-23.952157,-1.8117563
2856,28.307332,-20.56648,-1.8117563
2857,30.661784,-16.856458,-1.8117563
2858,32.532681,-12.880599,-1.8117563
2859,33.890518,-8.701606,-1.8117563
2860,34.713881,-4.3853831,-1.8117563
2861,34.723581,4.3866084,0.37476541
2862,33.899987,8.7040374,0.37476541
2863,32.541771,12.884198,0.37476541
2864,30.670351,16.861168,0.37476541
2865,28.315241,20.572227,0.37476541
2866,25.513583,23.95885,0.37476541
2867,22.309561,26.967627,0.37476541
2868,18.753704,29.551108,0.37476541
2869,14.902089,31.668551,0.37476541
2870,10.81546,33.286563,0.37476541
2871,6.5582641,34.379625,0.37476541
2872,2.1976407,34.930499,0.37476541
2873,-2.1976407,34.930499,0.37476541
2874,-6.5582641,34.379625,0.37476541
2875,-10.81546,33.286563,0.37476541
2876,-14.902089,31.668551,0.37476541
2877,-18.753704,29.551108,0.37476541
2878,-22.309561,26.967627,0.37476541
2879,-25.513583,23.95885,0.37476541
2880,-28.315241,20.572227,0.37476541
2881,-30.670351,16.861168,0.37476541
2882,-32.541771,12.884198,0.37476541
2883,-33.899987,8.7040374,0.37476541
2884,-34.723581,4.3866084,0.37476541
2885,-34.999563,-1.7763568e-15,0.37476541
2886,-34.723581,-4.3866084,0.37476541
2887,-33.899987,-8.7040374,0.37476541
2888,-32.541771,-12.884198,0.37476541
2889,-30.670351,-16.861168,0.37476541
2890,-28.315241,-20.572227,0.37476541
2891,-25.513583,-23.95885,0.37476541
2892,-22.309561,-26.967627,0.37476541
2893,-18.753704,-29.551108,0.37476541
2894,-14.902089,-31.668551,0.37476541
2895,-10.81546,-33.286563,0.37476541
2896,-6.5582641,-34.379625,0.37476541
2897,-2.1976407,-34.930499,0.37476541
2898,2.1976407,-34.930499,0.37476541
2899,6.5582641,-34.379625,0.37476541
2900,10.81546,-33.286563,0.37476541
2901,14.902089,-31.668551,0.37476541
2902,18.753704,-29.551108,0.37476541
2903,22.309561,-26.967627,0.37476541
2904,25.513583,-23.95885,0.37476541
2905,28.315241,-20.572227,0.37476541
2906,30.670351,-16.861168,0.37476541
2907,32.541771,-12.884198,0.37476541
2908,33.899987,-8.7040374,0.37476541
2909,34.723581,-4.3866084,0.37476541
2910,34.703761,4.3841046,2.5612177
2911,33.880638,8.6990692,2.5612177
2912,32.523196,12.876844,2.5612177
2913,30.652845,16.851544,2.5612177
2914,28.299079,20.560485,2.5612177
2915,25.499021,23.945174,2.5612177
2916,22.296827,26.952234,2.5612177
2917,18.742999,29.534241,2.5612177
2918,14.893583,31.650475,2.5612177
2919,10.809286,33.267563,2.5612177
2920,6.5545207,34.360001,2.5612177
2921,2.1963864,34.910561,2.5612177
2922,-2.1963864,34.910561,2.5612177
2923,-6.5545207,34.360001,2.5612177
2924,-10.809286,33.267563,2.5612177
2925,-14.893583,31.650475,2.5612177
2926,-18.742999,29.534241,2.5612177
2927,-22.296827,26.952234,2.5612177
2928,-25.499021,23.945174,2.5612177
2929,-28.299079,20.560485,2.5612177
2930,-30.652845,16.851544,2.5612177
2931,-32.523196,12.876844,2.5612177
2932,-33.880638,8.6990692,2.5612177
2933,-34.703761,4.3841046,2.5612177
2934,-34.979586,-3.5527137e-15,2.5612177
2935,-34.703761,-4.3841046,2.5612177
2936,-33.880638,-8.6990692,2.5612177
2937,-32.523196,-12.876844,2.5612177
2938,-30.652845,-16.851544,2.5612177
2939,-28.299079,-20.560485,2.5612177
2940,-25.499021,-23.945174,2.5612177
2941,-22.296827,-26.952234,2.5612177
2942,-18.742999,-29.534241,2.5612177
2943,-14.893583,-31.650475,2.5612177
2944,-10.809286,-33.267563,2.5612177
2945,-6.5545207,-34.360001,2.5612177
2946,-2.1963864,-34.910561,2.5612177
2947,2.1963864,-34.910561,2.5612177
2948,6.5545207,-34.360001,2.5612177
2949,10.809286,-33.267563,2.5612177
2950,14.893583,-31.650475,2.5612177
2951,18.742999,-29.534241,2.5612177
2952,22.296827,-26.952234,2.5612177
2953,25.499021,-23.945174,2.5612177
2954,28.299079,-20.560485,2.5612177
2955,30.652845,-16.851544,2.5612177
2956,32.523196,-12.876844,2.5612177
2957,33.880638,-8.6990692,2.5612177
2958,34.703761,-4.3841046,2.5612177
2959,34.654386,4.377867,4.7471948
2960,33.832434,8.6866925,4.7471948
2961,32.476923,12.858524,4.7471948
2962,30.609233,16.827568,4.7471948
2963,28.258816,20.531232,4.7471948
2964,25.462742,23.911106,4.7471948
2965,22.265104,26.913887,4.7471948
2966,18.716332,29.492221,4.7471948
2967,14.872393,31.605444,4.7471948
2968,10.793907,33.220231,4.7471948
2969,6.5451952,34.311115,4.7471948
2970,2.1932614,34.860892,4.7471948
2971,-2.1932614,34.860892,4.7471948
2972,-6.5451952,34.311115,4.7471948
2973,-10.793907,33.220231,4.7471948
2974,-14.872393,31.605444,4.7471948
2975,-18.716332,29.492221,4.7471948
2976,-22.265104,26.913887,4.7471948
2977,-25.462742,23.911106,4.7471948
2978,-28.258816,20.531232,4.7471948
2979,-30.609233,16.827568,4.7471948
2980,-32.476923,12.858524,4.7471948
2981,-33.832434,8.6866925,4.7471948
2982,-34.654386,4.377867,4.7471948
2983,-34.929818,-1.7763568e-15,4.7471948
2984,-34.654386,-4.377867,4.7471948
2985,-33.832434,-8.6866925,4.7471948
2986,-32.476923,-12.858524,4.7471948
2987,-30.609233,-16.827568,4.7471948
2988,-28.258816,-20.531232,4.7471948
2989,-25.462742,-23.911106,4.7471948
2990,-22.265104,-26.913887,4.7471948
2991,-18.716332,-29.492221,4.7471948
2992,-14.872393,-31.605444,4.7471948
2993,-10.793907,-33.220231,4.7471948
2994,-6.5451952,-34.311115,4.7471948
2995,-2.1932614,-34.860892,4.7471948
2996,2.1932614,-34.860892,4.7471948
2997,6.5451952,-34.311115,4.7471948
2998,10.793907,-33.220231,4.7471948
2999,14.872393,-31.605444,4.7471948
3000,18.716332,-29.492221,4.7471948
3001,22.265104,-26.913887,4.7471948
3002,25.462742,-23.911106,4.7471948
3003,28.258816,-20.531232,4.7471948
3004,30.609233,-16.827568,4.7471948
3005,32.476923,-12.858524,4.7471948
3006,33.832434,-8.6866925,4.7471948
3007,34.654386,-4.377867,4.7471948
3008,34.575366,4.3678845,6.932287
3009,33.755288,8.6668848,6.932287
3010,32.402868,12.829203,6.932287
3011,30.539437,16.789197,6.932287
3012,28.19438,20.484416,6.932287
3013,25.40468,23.856583,6.932287
3014,22.214334,26.852517,6.932287
3015,18.673655,29.424972,6.932287
3016,14.838481,31.533376,6.932287
3017,10.769295,33.144481,6.932287
3018,6.5302706,34.232878,6.932287
3019,2.1882603,34.781401,6.932287
3020,-2.1882603,34.781401,6.932287
3021,-6.5302706,34.232878,6.932287
3022,-10.769295,33.144481,6.932287
3023,-14.838481,31.533376,6.932287
3024,-18.673655,29.424972,6.932287
3025,-22.214334,26.852517,6.932287
3026,-25.40468,23.856583,6.932287
3027,-28.19438,20.484416,6.932287
3028,-30.539437,16.789197,6.932287
3029,-32.402868,12.829203,6.932287
3030,-33.755288,8.6668848,6.932287
3031,-34.575366,4.3678845,6.932287
3032,-34.85017,9.7699626e-15,6.932287
3033,-34.575366,-4.3678845,6.932287
3034,-33.755288,-8.6668848,6.932287
3035,-32.402868,-12.829203,6.932287
3036,-30.539437,-16.789197,6.932287
3037,-28.19438,-20.484416,6.932287
3038,-25.40468,-23.856583,6.932287
3039,-22.214334,-26.852517,6.932287
3040,-18.673655,-29.424972,6.932287
3041,-14.838481,-31.533376,6.932287
3042,-10.769295,-33.144481,6.932287
3043,-6.5302706,-34.232878,6.932287
3044,-2.1882603,-34.781401,6.932287
3045,2.1882603,-34.781401,6.932287
3046,6.5302706,-34.232878,6.932287
3047,10.769295,-33.144481,6.932287
3048,14.838481,-31.533376,6.932287
3049,18.673655,-29.424972,6.932287
3050,22.214334,-26.852517,6.932287
3051,25.40468,-23.856583,6.932287
3052,28.19438,-20.484416,6.932287
3053,30.539437,-16.789197,6.932287
3054,32.402868,-12.829203,6.932287
3055,33.755288,-8.6668848,6.932287
3056,34.575366,-4.3678845,6.932287
3057,34.466556,4.3541387,9.1160779
3058,33.649059,8.6396099,9.1160779
3059,32.300896,12.788829,9.1160779
3060,30.443328,16.736361,9.1160779
3061,28.105651,20.419951,9.1160779
3062,25.324731,23.781506,9.1160779
3063,22.144425,26.768012,9.1160779
3064,18.614888,29.332371,9.1160779
3065,14.791784,31.43414,9.1160779
3066,10.735404,33.040175,9.1160779
3067,6.5097197,34.125146,9.1160779
3068,2.1813738,34.671943,9.1160779
3069,-2.1813738,34.671943,9.1160779
3070,-6.5097197,34.125146,9.1160779
3071,-10.735404,33.040175,9.1160779
3072,-14.791784,31.43414,9.1160779
3073,-18.614888,29.332371,9.1160779
3074,-22.144425,26.768012,9.1160779
3075,-25.324731,23.781506,9.1160779
3076,-28.105651,20.419951,9.1160779
3077,-30.443328,16.736361,9.1160779
3078,-32.300896,12.788829,9.1160779
3079,-33.649059,8.6396099,9.1160779
3080,-34.466556,4.3541387,9.1160779
3081,-34.740496,-1.7763568e-15,9.1160779
3082,-34.466556,-4.3541387,9.1160779
3083,-33.649059,-8.6396099,9.1160779
3084,-32.300896,-12.788829,9.1160779
3085,-30.443328,-16.736361,9.1160779
3086,-28.105651,-20.419951,9.1160779
3087,-25.324731,-23.781506,9.1160779
3088,-22.144425,-26.768012,9.1160779
3089,-18.614888,-29.332371,9.1160779
3090,-14.791784,-31.43414,9.1160779
3091,-10.735404,-33.040175,9.1160779
3092,-6.5097197,-34.125146,9.1160779
3093,-2.1813738,-34.671943,9.1160779
3094,2.1813738,-34.671943,9.1160779
3095,6.5097197,-34.125146,9.1160779
3096,10.735404,-33.040175,9.1160779
3097,14.791784,-31.43414,9.1160779
3098,18.614888,-29.332371,9.1160779
3099,22.144425,-26.768012,9.1160779
3100,25.324731,-23.781506,9.1160779
3101,28.105651,-20.419951,9.1160779
3102,30.443328,-16.736361,9.1160779
3103,32.300896,-12.788829,9.1160779
3104,33.649059,-8.6396099,9.1160779
3105,34.466556,-4.3541387,9.1160779
3106,34.327758,4.3366043,11.29814
3107,33.513553,8.6048178,11.29814
3108,32.170819,12.737328,11.29814
3109,30.320732,16.668963,11.29814
3110,27.992469,20.337719,11.29814
3111,25.222747,23.685736,11.29814
3112,22.055249,26.660216,11.29814
3113,18.539925,29.214248,11.29814
3114,14.732216,31.307553,11.29814
3115,10.692172,32.90712,11.29814
3116,6.4835048,33.987722,11.29814
3117,2.1725893,34.532318,11.29814
3118,-2.1725893,34.532318,11.29814
3119,-6.4835048,33.987722,11.29814
3120,-10.692172,32.90712,11.29814
3121,-14.732216,31.307553,11.29814
3122,-18.539925,29.214248,11.29814
3123,-22.055249,26.660216,11.29814
3124,-25.222747,23.685736,11.29814
3125,-27.992469,20.337719,11.29814
3126,-30.320732,16.668963,11.29814
3127,-32.170819,12.737328,11.29814
3128,-33.513553,8.6048178,11.29814
3129,-34.327758,4.3366043,11.29814
3130,-34.600594,-4.4408921e-15,11.29814
3131,-34.327758,-4.3366043,11.29814
3132,-33.513553,-8.6048178,11.29814
3133,-32.170819,-12.737328,11.29814
3134,-30.320732,-16.668963,11.29814
3135,-27.992469,-20.337719,11.29814
3136,-25.222747,-23.685736,11.29814
3137,-22.055249,-26.660216,11.29814
3138,-18.539925,-29.214248,11.29814
3139,-14.732216,-31.307553,11.29814
3140,-10.692172,-32.90712,11.29814
3141,-6.4835048,-33.987722,11.29814
3142,-2.1725893,-34.532318,11.29814
3143,2.1725893,-34.532318,11.29814
3144,6.4835048,-33.987722,11.29814
3145,10.692172,-32.90712,11.29814
3146,14.732216,-31.307553,11.29814
3147,18.539925,-29.214248,11.29814
3148,22.055249,-26.660216,11.29814
3149,25.222747,-23.685736,11.29814
3150,27.992469,-20.337719,11.29814
3151,30.320732,-16.668963,11.29814
3152,32.170819,-12.737328,11.29814
3153,33.513553,-8.6048178,11.29814
3154,34.327758,-4.3366043,11.29814
3155,34.158713,4.315249,13.478034
3156,33.348517,8.5624439,13.478034
3157,32.012395,12.674604,13.478034
3158,30.171419,16.586878,13.478034
3159,27.854621,20.237567,13.478034
3160,25.09854,23.569098,13.478034
3161,21.946639,26.528929,13.478034
3162,18.448627,29.070384,13.478034
3163,14.659669,31.153381,13.478034
3164,10.639519,32.745071,13.478034
3165,6.4515772,33.820352,13.478034
3166,2.1618905,34.362265,13.478034
3167,-2.1618905,34.362265,13.478034
3168,-6.4515772,33.820352,13.478034
3169,-10.639519,32.745071,13.478034
3170,-14.659669,31.153381,13.478034
3171,-18.448627,29.070384,13.478034
3172,-21.946639,26.528929,13.478034
3173,-25.09854,23.569098,13.478034
3174,-27.854621,20.237567,13.478034
3175,-30.171419,16.586878,13.478034
3176,-32.012395,12.674604,13.478034
3177,-33.348517,8.5624439,13.478034
3178,-34.158713,4.315249,13.478034
3179,-34.430205,5.3290705e-15,13.478034
3180,-34.158713,-4.315249,13.478034
3181,-33.348517,-8.5624439,13.478034
3182,-32.012395,-12.674604,13.478034
3183,-30.171419,-16.586878,13.478034
3184,-27.854621,-20.237567,13.478034
3185,-25.09854,-23.569098,13.478034
3186,-21.946639,-26.528929,13.478034
3187,-18.448627,-29.070384,13.478034
3188,-14.659669,-31.153381,13.478034
3189,-10.639519,-32.745071,13.478034
3190,-6.4515772,-33.820352,13.478034
3191,-2.1618905,-34.362265,13.478034
3192,2.1618905,-34.362265,13.478034
3193,6.4515772,-33.820352,13.478034
3194,10.639519,-32.745071,13.478034
3195,14.659669,-31.153381,13.478034
3196,18.448627,-29.070384,13.478034
3197,21.946639,-26.528929,13.478034
3198,25.09854,-23.569098,13.478034
3199,27.854621,-20.237567,13.478034
3200,30.171419,-16.586878,13.478034
3201,32.012395,-12.674604,13.478034
3202,33.348517,-8.5624439,13.478034
3203,34.158713,-4.315249,13.478034
3204,33.959105,4.2900326,15.6553
3205,33.153644,8.5124088,15.6553
3206,31.825329,12.600539,15.6553
3207,29.995111,16.489952,15.6553
3208,27.691851,20.119308,15.6553
3209,24.951875,23.43137,15.6553
3210,21.818393,26.373906,15.6553
3211,18.340821,28.90051,15.6553
3212,14.574004,30.971335,15.6553
3213,10.577346,32.553724,15.6553
3214,6.413877,33.622721,15.6553
3215,2.1492574,34.161468,15.6553
3216,-2.1492574,34.161468,15.6553
3217,-6.413877,33.622721,15.6553
3218,-10.577346,32.553724,15.6553
3219,-14.574004,30.971335,15.6553
3220,-18.340821,28.90051,15.6553
3221,-21.818393,26.373906,15.6553
3222,-24.951875,23.43137,15.6553
3223,-27.691851,20.119308,15.6553
3224,-29.995111,16.489952,15.6553
3225,-31.825329,12.600539,15.6553
3226,-33.153644,8.5124088,15.6553
3227,-33.959105,4.2900326,15.6553
3228,-34.229011,2.6645353e-15,15.6553
3229,-33.959105,-4.2900326,15.6553
3230,-33.153644,-8.5124088,15.6553
3231,-31.825329,-12.600539,15.6553
3232,-29.995111,-16.489952,15.6553
3233,-27.691851,-20.119308,15.6553
3234,-24.951875,-23.43137,15.6553
3235,-21.818393,-26.373906,15.6553
3236,-18.340821,-28.90051,15.6553
3237,-14.574004,-30.971335,15.6553
3238,-10.577346,-32.553724,15.6553
3239,-6.413877,-33.622721,15.6553
3240,-2.1492574,-34.161468,15.6553
3241,2.1492574,-34.161468,15.6553
3242,6.413877,-33.622721,15.6553
3243,10.577346,-32.553724,15.6553
3244,14.574004,-30.971335,15.6553
3245,18.340821,-28.90051,15.6553
3246,21.818393,-26.373906,15.6553
3247,24.951875,-23.43137,15.6553
3248,27.691851,-20.119308,15.6553
3249,29.995111,-16.489952,15.6553
3250,31.825329,-12.600539,15.6553
3251,33.153644,-8.5124088,15.6553
3252,33.959105,-4.2900326,15.6553
3253,33.728554,4.2609073,17.829458
3254,32.928561,8.4546176,17.829458
3255,31.609265,12.514993,17.829458
3256,29.791472,16.378,17.829458
3257,27.50385,19.982717,17.829458
3258,24.782475,23.272293,17.829458
3259,21.670266,26.194852,17.829458
3260,18.216304,28.704302,17.829458
3261,14.47506,30.761069,17.829458
3262,10.505536,32.332715,17.829458
3263,6.3703328,33.394454,17.829458
3264,2.1346659,33.929543,17.829458
3265,-2.1346659,33.929543,17.829458
3266,-6.3703328,33.394454,17.829458
3267,-10.505536,32.332715,17.829458
3268,-14.47506,30.761069,17.829458
3269,-18.216304,28.704302,17.829458
3270,-21.670266,26.194852,17.829458
3271,-24.782475,23.272293,17.829458
3272,-27.50385,19.982717,17.829458
3273,-29.791472,16.378,17.829458
3274,-31.609265,12.514993,17.829458
3275,-32.928561,8.4546176,17.829458
3276,-33.728554,4.2609073,17.829458
3277,-33.996628,-3.5527137e-15,17.829458
3278,-33.728554,-4.2609073,17.829458
3279,-32.928561,-8.4546176,17.829458
3280,-31.609265,-12.514993,17.829458
3281,-29.791472,-16.378,17.829458
3282,-27.50385,-19.982717,17.829458
3283,-24.782475,-23.272293,17.829458
3284,-21.670266,-26.194852,17.829458
3285,-18.216304,-28.704302,17.829458
3286,-14.47506,-30.761069,17.829458
3287,-10.505536,-32.332715,17.829458
3288,-6.3703328,-33.394454,17.829458
3289,-2.1346659,-33.929543,17.829458
3290,2.1346659,-33.929543,17.829458
3291,6.3703328,-33.394454,17.829458
3292,10.505536,-32.332715,17.829458
3293,14.47506,-30.761069,17.829458
3294,18.216304,-28.704302,17.829458
3295,21.670266,-26.194852,17.829458
3296,24.782475,-23.272293,17.829458
3297,27.50385,-19.982717,17.829458
3298,29.791472,-16.378,17.829458
3299,31.609265,-12.514993,17.829458
3300,32.928561,-8.4546176,17.829458
3301,33.728554,-4.2609073,17.829458
3302,1.8588233,0.23482399,-64.817204
3303,1.8147347,0.46594467,-64.817204
3304,1.7420266,0.68971712,-64.817204
3305,1.6418457,0.90261232,-64.817204
3306,1.515772,1.1012728,-64.817204
3307,1.3657936,1.2825655,-64.817204
3308,1.1942758,1.4436314,-64.817204
3309,1.0039236,1.5819304,-64.817204
3310,0.79773888,1.6952814,-64.817204
3311,0.57897337,1.7818968,-64.817204
3312,0.3510771,1.8404106,-64.817204
3313,0.11764414,1.8699001,-64.817204
3314,-0.11764414,1.8699001,-64.817204
3315,-0.3510771,1.8404106,-64.817204
3316,-0.57897337,1.7818968,-64.817204
3317,-0.79773888,1.6952814,-64.817204
3318,-1.0039236,1.5819304,-64.817204
3319,-1.1942758,1.4436314,-64.817204
3320,-1.3657936,1.2825655,-64.817204
3321,-1.515772,1.1012728,-64.817204
3322,-1.6418457,0.90261232,-64.817204
3323,-1.7420266,0.68971712,-64.817204
3324,-1.8147347,0.46594467,-64.817204
3325,-1.8588233,0.23482399,-64.817204
3326,-1.8735972,8.3266727e-17,-64.817204
3327,-1.8588233,-0.23482399,-64.817204
3328,-1.8147347,-0.46594467,-64.817204
3329,-1.7420266,-0.68971712,-64.817204
3330,-1.6418457,-0.90261232,-64.817204
3331,-1.515772,-1.1012728,-64.817204
3332,-1.3657936,-1.2825655,-64.817204
3333,-1.1942758,-1.4436314,-64.817204
